timestamp_ms,emg_adc,emg_rms,flex_thumb,flex_index,flex_middle,flex_ring,flex_pinky,fsr_thumb,fsr_index,fsr_middle,spike_rate,membrane_potential,servo_angle,gesture_class,gesture_id
0,622,0.608,848,770,606,571,688,100,182,162,0,0.012,116,1,1
10,607,0.593,599,651,630,649,808,81,167,187,0,0.042,59,1,1
20,540,0.528,660,813,521,752,735,168,128,170,0,0.08,88,1,1
30,534,0.522,689,674,550,554,743,143,82,180,0,0.136,80,1,1
40,592,0.579,666,773,588,815,513,193,88,169,0,0.046,82,1,1
50,611,0.597,763,534,705,580,549,183,83,81,0,0.042,35,1,1
60,523,0.511,809,690,717,543,661,153,141,179,0,0.145,43,1,1
70,534,0.522,714,751,689,795,712,159,188,161,0,0.117,82,1,1
80,643,0.629,540,656,514,800,564,168,150,88,1,0.199,117,1,1
90,582,0.569,638,580,662,788,760,185,182,120,0,0.173,57,1,1
100,591,0.578,767,532,547,561,715,116,178,123,0,0.177,115,1,1
110,620,0.606,630,756,504,717,754,93,182,106,0,0.142,38,1,1
120,609,0.595,541,678,562,730,740,131,175,83,0,0.121,52,1,1
130,548,0.536,535,512,659,826,686,194,165,107,0,0.125,95,1,1
140,581,0.568,633,783,527,607,543,163,109,141,0,0.065,104,1,1
150,611,0.597,730,689,724,782,620,195,156,184,0,0.001,32,1,1
160,581,0.568,664,724,806,733,671,103,158,138,0,0.104,61,1,1
170,632,0.618,817,551,767,794,612,180,192,135,1,0.173,110,1,1
180,521,0.509,629,719,553,842,723,176,80,98,0,0.106,31,1,1
190,587,0.574,702,683,622,754,793,103,148,195,0,0.08,99,1,1
200,616,0.602,700,623,686,825,848,82,99,138,0,0.003,65,1,1
210,615,0.601,698,807,627,538,837,183,80,90,0,0.023,86,1,1
220,561,0.548,598,762,751,643,845,191,195,139,0,0.199,31,1,1
230,556,0.543,659,508,732,598,646,127,159,82,0,0.177,49,1,1
240,639,0.625,660,615,574,612,603,163,178,191,1,0.253,118,1,1
250,612,0.598,837,693,809,662,707,140,120,179,0,0.004,62,1,1
260,540,0.528,803,634,694,627,532,127,155,138,0,0.053,115,1,1
270,557,0.544,729,550,763,782,526,177,100,109,0,0.134,57,1,1
280,580,0.567,803,646,503,534,691,128,96,123,0,0.191,59,1,1
290,636,0.622,505,598,732,536,779,172,192,125,1,0.234,82,1,1
300,635,0.621,690,752,660,755,822,97,104,185,1,0.259,83,1,1
310,623,0.609,673,779,613,787,841,102,145,106,0,0.065,31,1,1
320,623,0.609,798,745,675,538,669,198,105,178,0,0.173,79,1,1
330,532,0.52,815,812,535,672,519,144,87,189,0,0.01,45,1,1
340,634,0.62,642,591,821,787,714,142,165,130,1,0.151,54,1,1
350,644,0.63,649,813,557,841,804,131,121,149,1,0.192,44,1,1
360,620,0.606,763,552,559,607,504,182,147,85,0,0.14,76,1,1
370,571,0.558,643,768,623,605,657,98,96,199,0,0.087,92,1,1
380,577,0.564,845,728,616,817,778,88,91,196,0,0.035,30,1,1
390,520,0.508,738,789,595,625,617,127,168,183,0,0.191,30,1,1
400,588,0.575,777,848,746,575,653,95,130,180,0,0.003,115,1,1
410,588,0.575,546,593,737,703,717,169,127,164,0,0.069,68,1,1
420,620,0.606,522,749,509,745,824,179,113,131,0,0.125,39,1,1
430,615,0.601,756,824,503,515,779,159,198,81,0,0.188,61,1,1
440,643,0.629,532,678,600,767,822,144,112,119,1,0.161,103,1,1
450,548,0.536,511,594,801,752,741,114,166,160,0,0.064,119,1,1
460,609,0.595,614,604,695,813,613,188,154,108,0,0.084,65,1,1
470,620,0.606,691,726,676,598,535,161,192,182,0,0.173,53,1,1
480,556,0.543,767,682,512,778,716,178,184,109,0,0.107,46,1,1
490,603,0.589,716,841,686,518,676,179,91,140,0,0.018,48,1,1
500,547,0.535,705,722,551,838,643,196,148,178,0,0.066,41,1,1
510,642,0.628,552,650,643,556,538,188,132,121,1,0.132,87,1,1
520,641,0.627,632,662,714,720,734,154,97,190,1,0.258,105,1,1
530,526,0.514,673,640,667,669,782,145,84,108,0,0.047,66,1,1
540,628,0.614,820,841,644,826,716,124,83,115,1,0.262,99,1,1
550,538,0.526,681,666,590,701,845,98,118,146,0,0.002,74,1,1
560,645,0.63,557,647,816,500,847,141,142,192,1,0.294,54,1,1
570,636,0.622,633,557,543,672,659,124,140,126,1,0.129,50,1,1
580,539,0.527,546,732,804,513,642,110,80,196,0,0.117,83,1,1
590,531,0.519,829,723,771,655,507,171,115,169,0,0.071,37,1,1
600,547,0.535,719,540,727,691,644,152,112,196,0,0.121,113,1,1
610,565,0.552,534,752,581,755,696,126,104,145,0,0.187,39,1,1
620,628,0.614,504,618,788,564,645,175,190,128,1,0.239,40,1,1
630,582,0.569,716,841,814,782,676,156,112,177,0,0.003,30,1,1
640,574,0.561,505,696,632,758,522,180,132,116,0,0.17,103,1,1
650,604,0.59,577,500,550,672,704,83,141,144,0,0.009,61,1,1
660,614,0.6,571,538,653,749,661,133,197,82,0,0.17,79,1,1
670,573,0.56,735,721,750,812,611,126,102,158,0,0.128,114,1,1
680,594,0.581,602,691,751,725,793,129,177,161,0,0.111,59,1,1
690,571,0.558,748,665,834,529,746,185,130,160,0,0.159,34,1,1
700,593,0.58,772,839,568,533,761,132,145,156,0,0.048,72,1,1
710,634,0.62,610,748,650,682,835,174,154,197,1,0.248,45,1,1
720,623,0.609,683,780,694,694,654,172,111,129,0,0.038,90,1,1
730,540,0.528,504,591,669,816,521,100,149,80,0,0.092,34,1,1
740,609,0.595,545,533,577,717,800,106,152,105,0,0.126,76,1,1
750,575,0.562,849,606,818,547,560,160,105,115,0,0.017,30,1,1
760,618,0.604,752,679,706,802,626,135,165,93,0,0.152,119,1,1
770,597,0.584,715,653,513,686,811,194,86,82,0,0.102,52,1,1
780,537,0.525,793,726,514,691,618,180,107,153,0,0.064,68,1,1
790,605,0.591,625,799,524,644,512,163,104,147,0,0.158,39,1,1
800,628,0.614,645,610,727,610,533,190,87,119,1,0.196,112,1,1
810,620,0.606,505,679,781,819,725,138,135,138,0,0.121,99,1,1
820,552,0.54,649,776,697,569,611,83,173,154,0,0.057,91,1,1
830,614,0.6,651,810,636,746,742,110,119,180,0,0.199,65,1,1
840,525,0.513,821,719,574,503,834,85,197,192,0,0.164,80,1,1
850,598,0.585,702,525,672,799,632,149,105,197,0,0.085,97,1,1
860,539,0.527,612,639,546,500,589,93,143,117,0,0.101,66,1,1
870,619,0.605,832,758,660,677,509,84,102,89,0,0.04,73,1,1
880,649,0.634,583,820,818,600,828,96,88,154,1,0.214,44,1,1
890,613,0.599,594,804,568,817,735,129,157,196,0,0.188,104,1,1
900,595,0.582,534,500,795,819,559,143,172,151,0,0.159,40,1,1
910,533,0.521,815,785,790,712,664,84,162,157,0,0.182,55,1,1
920,608,0.594,736,541,588,795,827,118,183,93,0,0.093,61,1,1
930,616,0.602,522,562,642,652,644,176,190,198,0,0.109,95,1,1
940,623,0.609,603,538,697,633,566,86,130,151,0,0.028,71,1,1
950,534,0.522,610,656,788,730,656,117,136,176,0,0.149,56,1,1
960,605,0.591,821,509,504,622,829,176,197,117,0,0.022,42,1,1
970,628,0.614,715,683,514,656,635,84,108,126,1,0.264,97,1,1
980,649,0.634,594,614,742,791,781,122,106,148,1,0.156,49,1,1
990,593,0.58,537,633,699,522,802,169,125,186,0,0.182,41,1,1
1000,623,0.609,709,610,603,815,670,155,187,179,0,0.158,97,1,1
1010,556,0.543,827,626,605,591,786,88,197,130,0,0.021,58,1,1
1020,560,0.547,713,766,756,801,600,100,169,189,0,0.025,65,1,1
1030,576,0.563,500,818,554,648,808,88,153,131,0,0.001,86,1,1
1040,554,0.542,562,743,524,589,574,117,81,86,0,0.096,111,1,1
1050,610,0.596,516,627,750,678,681,103,104,150,0,0.084,81,1,1
1060,607,0.593,660,676,784,562,649,105,107,193,0,0.103,114,1,1
1070,600,0.587,583,676,647,617,841,171,142,140,0,0.06,78,1,1
1080,642,0.628,710,817,531,657,784,128,124,172,1,0.287,59,1,1
1090,538,0.526,517,756,577,674,693,197,171,192,0,0.153,67,1,1
1100,648,0.633,763,554,630,787,765,153,162,189,1,0.202,63,1,1
1110,606,0.592,554,787,677,848,507,144,136,198,0,0.046,96,1,1
1120,591,0.578,553,748,738,728,566,130,176,171,0,0.02,37,1,1
1130,615,0.601,587,577,787,619,801,186,95,147,0,0.028,66,1,1
1140,574,0.561,506,829,762,660,650,164,98,191,0,0.117,48,1,1
1150,601,0.587,501,802,696,510,733,81,146,166,0,0.166,41,1,1
1160,556,0.543,755,721,725,552,841,187,103,160,0,0.113,103,1,1
1170,578,0.565,714,627,723,708,614,160,93,88,0,0.14,69,1,1
1180,544,0.532,700,745,777,734,503,105,137,108,0,0.137,116,1,1
1190,589,0.576,645,627,840,541,540,117,113,96,0,0.13,66,1,1
1200,641,0.627,575,586,616,841,526,136,110,85,1,0.17,69,1,1
1210,572,0.559,672,689,621,545,563,81,133,186,0,0.017,94,1,1
1220,555,0.543,781,528,648,766,795,90,115,192,0,0.059,88,1,1
1230,573,0.56,597,554,610,651,745,101,148,135,0,0.054,62,1,1
1240,600,0.587,700,653,572,700,795,96,80,168,0,0.138,90,1,1
1250,561,0.548,524,538,790,630,728,187,123,130,0,0.072,41,1,1
1260,563,0.55,804,516,829,556,810,192,126,91,0,0.192,91,1,1
1270,602,0.588,763,648,580,714,697,151,104,161,0,0.129,118,1,1
1280,578,0.565,525,546,787,765,515,150,96,102,0,0.114,55,1,1
1290,533,0.521,834,616,506,636,675,151,193,138,0,0.159,116,1,1
1300,635,0.621,602,772,513,658,651,178,187,139,1,0.135,74,1,1
1310,556,0.543,670,682,538,514,503,172,165,104,0,0.125,42,1,1
1320,535,0.523,607,810,726,669,533,109,198,92,0,0.077,42,1,1
1330,615,0.601,726,538,801,528,817,196,187,136,0,0.175,45,1,1
1340,640,0.626,765,839,564,676,502,124,93,199,1,0.291,59,1,1
1350,556,0.543,652,692,572,804,843,147,91,138,0,0.157,66,1,1
1360,643,0.629,697,794,818,801,843,90,141,156,1,0.269,54,1,1
1370,523,0.511,558,571,647,848,562,133,196,194,0,0.009,103,1,1
1380,576,0.563,717,740,758,761,504,84,133,126,0,0.177,116,1,1
1390,618,0.604,519,740,560,677,837,141,96,167,0,0.163,32,1,1
1400,532,0.52,619,588,828,567,597,90,184,135,0,0.055,96,1,1
1410,548,0.536,636,694,725,831,669,88,158,119,0,0.11,54,1,1
1420,643,0.629,537,827,750,675,589,97,149,116,1,0.142,89,1,1
1430,547,0.535,580,613,539,800,723,141,172,194,0,0.114,87,1,1
1440,559,0.546,539,846,736,788,761,167,98,159,0,0.049,69,1,1
1450,578,0.565,558,803,668,768,544,168,132,121,0,0.14,92,1,1
1460,526,0.514,632,734,544,813,748,194,110,102,0,0.026,71,1,1
1470,626,0.612,657,538,581,757,705,156,172,91,1,0.159,68,1,1
1480,532,0.52,545,654,612,732,516,183,174,177,0,0.002,89,1,1
1490,628,0.614,662,825,573,732,723,177,142,107,1,0.156,89,1,1
1500,556,0.543,777,695,741,823,718,143,96,91,0,0.142,51,1,1
1510,637,0.623,692,521,619,709,805,93,143,126,1,0.209,58,1,1
1520,644,0.63,506,528,532,633,578,111,130,154,1,0.12,87,1,1
1530,548,0.536,503,598,538,770,784,108,154,195,0,0.016,61,1,1
1540,603,0.589,521,526,694,836,735,135,171,172,0,0.182,50,1,1
1550,620,0.606,583,761,646,756,557,117,94,113,0,0.04,90,1,1
1560,544,0.532,779,511,773,770,707,106,151,139,0,0.041,75,1,1
1570,612,0.598,808,507,578,526,673,129,195,150,0,0.159,32,1,1
1580,543,0.531,815,545,514,652,721,157,150,96,0,0.086,113,1,1
1590,582,0.569,713,616,843,571,563,156,160,151,0,0.014,50,1,1
1600,583,0.57,837,594,665,531,510,124,168,112,0,0.008,70,1,1
1610,607,0.593,540,575,545,659,579,133,165,171,0,0.069,49,1,1
1620,616,0.602,501,724,788,732,576,195,105,101,0,0.195,95,1,1
1630,609,0.595,673,621,642,605,804,183,154,140,0,0.179,96,1,1
1640,528,0.516,761,572,722,540,703,87,151,129,0,0.157,91,1,1
1650,630,0.616,750,506,583,707,813,101,105,82,1,0.153,70,1,1
1660,533,0.521,511,586,511,524,800,194,98,134,0,0.036,74,1,1
1670,638,0.624,808,682,787,806,799,161,149,97,1,0.166,112,1,1
1680,615,0.601,811,558,630,701,742,114,140,172,0,0.006,83,1,1
1690,616,0.602,831,804,849,712,658,137,140,103,0,0.126,49,1,1
1700,627,0.613,519,651,549,676,595,184,115,196,1,0.24,95,1,1
1710,525,0.513,794,742,685,745,624,91,82,188,0,0.126,47,1,1
1720,618,0.604,781,507,599,739,586,121,123,93,0,0.103,107,1,1
1730,556,0.543,824,540,817,815,610,93,199,182,0,0.133,118,1,1
1740,589,0.576,644,844,527,565,662,180,84,144,0,0.12,69,1,1
1750,564,0.551,802,786,509,694,617,93,159,153,0,0.134,39,1,1
1760,624,0.61,756,632,775,763,670,155,80,136,0,0.072,93,1,1
1770,547,0.535,620,606,674,703,664,128,192,199,0,0.089,73,1,1
1780,630,0.616,706,607,750,833,629,152,116,99,1,0.128,55,1,1
1790,638,0.624,534,697,744,558,824,112,192,130,1,0.258,107,1,1
1800,539,0.527,680,741,715,750,798,177,168,129,0,0.174,58,1,1
1810,557,0.544,839,650,625,800,807,159,129,185,0,0.194,37,1,1
1820,648,0.633,763,656,504,585,674,113,144,134,1,0.195,119,1,1
1830,633,0.619,644,525,635,802,731,192,155,170,1,0.279,101,1,1
1840,552,0.54,500,646,786,641,552,127,148,184,0,0.07,119,1,1
1850,582,0.569,572,660,668,588,675,92,152,196,0,0.058,106,1,1
1860,587,0.574,597,601,631,601,518,149,177,161,0,0.16,42,1,1
1870,602,0.588,830,628,843,809,588,164,94,144,0,0.122,105,1,1
1880,579,0.566,592,804,723,790,601,169,90,178,0,0.134,101,1,1
1890,593,0.58,764,502,584,781,827,127,145,149,0,0.005,57,1,1
1900,531,0.519,632,803,792,799,727,94,122,127,0,0.163,116,1,1
1910,627,0.613,520,606,835,802,616,94,104,115,1,0.196,104,1,1
1920,587,0.574,776,640,774,789,833,147,191,196,0,0.134,81,1,1
1930,554,0.542,635,643,605,657,645,81,128,156,0,0.165,33,1,1
1940,613,0.599,762,607,573,538,658,150,142,135,0,0.037,71,1,1
1950,555,0.543,583,762,809,671,672,185,126,92,0,0.164,51,1,1
1960,545,0.533,508,770,509,620,624,121,151,103,0,0.111,109,1,1
1970,610,0.596,792,567,549,651,518,179,139,118,0,0.162,103,1,1
1980,588,0.575,674,548,607,725,660,198,100,160,0,0.005,51,1,1
1990,530,0.518,637,577,576,753,757,143,114,86,0,0.135,114,1,1
2000,561,0.548,624,666,740,779,687,125,98,147,0,0.067,119,2,2
2010,551,0.539,666,608,535,731,728,176,115,82,0,0.065,102,2,2
2020,642,0.628,569,695,768,548,815,81,139,84,1,0.167,73,2,2
2030,527,0.515,729,699,549,566,799,137,82,165,0,0.01,99,2,2
2040,521,0.509,601,708,790,785,615,87,101,123,0,0.192,87,2,2
2050,596,0.583,786,802,810,707,605,141,109,134,0,0.0,45,2,2
2060,522,0.51,643,529,736,778,847,194,183,197,0,0.147,34,2,2
2070,627,0.613,820,620,785,648,583,149,101,161,1,0.271,101,2,2
2080,535,0.523,537,725,641,791,650,193,188,145,0,0.069,114,2,2
2090,594,0.581,822,679,689,653,695,161,134,85,0,0.157,64,2,2
2100,605,0.591,815,600,743,511,738,128,121,117,0,0.126,111,2,2
2110,586,0.573,835,506,513,572,662,145,170,81,0,0.069,64,2,2
2120,539,0.527,755,765,524,780,752,133,112,115,0,0.028,43,2,2
2130,599,0.586,809,737,524,640,616,177,87,100,0,0.027,97,2,2
2140,587,0.574,672,511,787,627,595,171,92,110,0,0.175,107,2,2
2150,579,0.566,659,848,542,753,629,139,102,162,0,0.012,60,2,2
2160,529,0.517,844,629,766,677,752,110,135,158,0,0.086,102,2,2
2170,618,0.604,648,828,655,689,762,159,95,176,0,0.127,33,2,2
2180,559,0.546,772,600,807,720,807,115,117,182,0,0.026,79,2,2
2190,635,0.621,690,561,755,506,654,171,165,93,1,0.267,100,2,2
2200,605,0.591,632,682,561,718,745,181,158,100,0,0.136,39,2,2
2210,639,0.625,564,512,712,741,712,132,161,180,1,0.129,74,2,2
2220,571,0.558,755,682,616,781,695,113,131,191,0,0.095,111,2,2
2230,561,0.548,520,541,612,604,691,96,199,88,0,0.138,70,2,2
2240,579,0.566,547,528,596,509,741,137,139,183,0,0.165,50,2,2
2250,553,0.541,763,713,699,578,842,167,124,162,0,0.147,98,2,2
2260,606,0.592,600,507,832,699,586,122,80,188,0,0.014,80,2,2
2270,536,0.524,632,647,776,731,813,110,189,179,0,0.194,40,2,2
2280,547,0.535,550,760,760,849,507,143,89,117,0,0.059,110,2,2
2290,623,0.609,828,548,791,823,577,184,120,168,0,0.179,91,2,2
2300,529,0.517,648,663,639,846,757,197,92,132,0,0.15,61,2,2
2310,551,0.539,787,725,510,509,770,96,119,97,0,0.019,84,2,2
2320,578,0.565,833,623,613,777,712,123,111,130,0,0.003,75,2,2
2330,641,0.627,531,721,618,538,767,184,126,97,1,0.271,50,2,2
2340,645,0.63,801,737,634,650,735,175,154,165,1,0.317,51,2,2
2350,541,0.529,847,784,768,757,528,164,158,131,0,0.193,56,2,2
2360,607,0.593,543,777,670,688,683,82,142,197,0,0.03,48,2,2
2370,549,0.537,794,607,780,627,728,190,87,185,0,0.002,87,2,2
2380,648,0.633,760,502,603,723,819,185,177,186,1,0.231,118,2,2
2390,647,0.632,801,730,718,565,611,92,88,195,1,0.121,65,2,2
2400,609,0.595,813,553,511,708,513,113,132,99,0,0.151,104,2,2
2410,589,0.576,811,710,600,685,631,190,83,99,0,0.177,39,2,2
2420,556,0.543,729,809,701,537,759,139,136,124,0,0.08,49,2,2
2430,590,0.577,503,720,513,502,715,180,159,137,0,0.141,84,2,2
2440,639,0.625,753,523,661,657,581,98,110,139,1,0.184,89,2,2
2450,582,0.569,710,651,608,575,529,137,181,196,0,0.165,60,2,2
2460,538,0.526,672,727,849,682,612,134,176,97,0,0.044,92,2,2
2470,566,0.553,812,617,800,660,697,83,99,191,0,0.024,76,2,2
2480,566,0.553,577,623,574,636,589,95,148,195,0,0.196,90,2,2
2490,522,0.51,606,612,849,753,617,188,149,160,0,0.188,80,2,2
2500,554,0.542,801,568,848,819,548,100,153,143,0,0.141,34,2,2
2510,609,0.595,759,625,730,794,628,103,136,179,0,0.011,99,2,2
2520,579,0.566,687,556,530,583,651,168,115,164,0,0.057,59,2,2
2530,625,0.611,841,719,662,719,769,199,89,159,1,0.272,45,2,2
2540,625,0.611,716,704,569,543,828,124,179,135,1,0.244,113,2,2
2550,626,0.612,520,695,677,506,569,94,161,111,1,0.313,104,2,2
2560,639,0.625,641,812,664,813,520,161,148,82,1,0.16,116,2,2
2570,568,0.555,844,840,660,677,616,147,185,150,0,0.112,115,2,2
2580,600,0.587,651,560,560,527,542,120,118,165,0,0.109,78,2,2
2590,617,0.603,564,829,840,504,501,101,191,136,0,0.02,95,2,2
2600,631,0.617,624,666,585,575,843,190,119,117,1,0.191,89,2,2
2610,618,0.604,691,742,818,548,531,86,100,99,0,0.066,55,2,2
2620,629,0.615,713,642,731,712,578,165,195,171,1,0.168,43,2,2
2630,577,0.564,783,525,565,747,753,82,151,123,0,0.1,71,2,2
2640,525,0.513,666,778,588,677,696,130,90,199,0,0.105,41,2,2
2650,560,0.547,663,584,571,554,546,94,127,189,0,0.032,111,2,2
2660,531,0.519,762,835,758,782,613,186,119,181,0,0.12,62,2,2
2670,527,0.515,600,675,606,600,759,173,149,189,0,0.176,48,2,2
2680,531,0.519,801,515,628,562,608,198,196,100,0,0.127,59,2,2
2690,523,0.511,601,722,558,746,627,106,148,104,0,0.105,32,2,2
2700,544,0.532,653,632,726,688,764,195,181,129,0,0.142,35,2,2
2710,640,0.626,712,715,725,630,575,171,109,169,1,0.143,50,2,2
2720,553,0.541,540,806,837,813,574,136,102,127,0,0.148,51,2,2
2730,627,0.613,638,849,770,846,788,163,95,113,1,0.183,95,2,2
2740,566,0.553,700,647,623,500,746,166,142,146,0,0.173,33,2,2
2750,566,0.553,793,642,690,520,726,136,196,132,0,0.152,75,2,2
2760,558,0.545,751,832,706,709,614,176,85,170,0,0.034,52,2,2
2770,617,0.603,545,537,641,599,827,141,114,98,0,0.16,59,2,2
2780,603,0.589,780,843,769,653,601,166,101,127,0,0.195,112,2,2
2790,538,0.526,700,783,672,826,705,142,152,198,0,0.175,48,2,2
2800,639,0.625,816,663,785,764,819,112,199,131,1,0.285,118,2,2
2810,572,0.559,726,833,721,540,695,147,171,87,0,0.134,31,2,2
2820,629,0.615,585,619,626,754,682,95,172,141,1,0.127,77,2,2
2830,554,0.542,766,563,549,754,648,148,127,99,0,0.098,96,2,2
2840,587,0.574,534,715,564,507,800,166,126,119,0,0.182,105,2,2
2850,566,0.553,514,646,525,807,592,101,183,100,0,0.089,80,2,2
2860,574,0.561,847,527,759,575,566,165,187,145,0,0.12,117,2,2
2870,624,0.61,756,571,586,761,713,104,161,96,0,0.094,90,2,2
2880,546,0.534,635,592,608,740,641,114,127,188,0,0.041,113,2,2
2890,568,0.555,801,689,635,542,589,118,164,196,0,0.044,78,2,2
2900,625,0.611,809,732,764,843,536,128,120,96,1,0.226,117,2,2
2910,578,0.565,682,540,538,691,766,189,98,90,0,0.186,106,2,2
2920,564,0.551,500,667,607,518,831,151,151,140,0,0.135,41,2,2
2930,564,0.551,589,602,749,507,652,170,125,166,0,0.052,59,2,2
2940,603,0.589,837,645,823,660,626,115,161,180,0,0.119,48,2,2
2950,603,0.589,612,724,831,742,642,120,118,81,0,0.129,92,2,2
2960,570,0.557,830,765,709,550,617,152,118,107,0,0.145,32,2,2
2970,636,0.622,501,592,665,849,795,81,160,120,1,0.179,41,2,2
2980,584,0.571,810,800,712,561,548,174,104,102,0,0.13,53,2,2
2990,547,0.535,776,606,645,598,572,132,181,109,0,0.045,89,2,2
3000,551,0.539,694,655,671,834,540,142,102,183,0,0.116,104,2,2
3010,576,0.563,617,599,666,789,655,116,86,147,0,0.178,66,2,2
3020,566,0.553,647,774,656,701,625,90,128,192,0,0.169,67,2,2
3030,635,0.621,703,820,530,612,824,109,199,167,1,0.226,88,2,2
3040,564,0.551,759,653,654,733,550,129,85,138,0,0.098,44,2,2
3050,641,0.627,624,536,669,623,534,166,85,147,1,0.285,47,2,2
3060,632,0.618,784,576,558,625,608,175,191,101,1,0.316,97,2,2
3070,568,0.555,661,841,808,842,541,177,111,188,0,0.035,80,2,2
3080,604,0.59,520,799,638,823,591,142,103,178,0,0.125,42,2,2
3090,536,0.524,598,751,837,603,713,103,98,116,0,0.03,114,2,2
3100,524,0.512,644,600,663,646,563,170,196,177,0,0.071,40,2,2
3110,566,0.553,639,745,648,745,504,160,135,99,0,0.175,70,2,2
3120,531,0.519,569,516,646,653,803,187,187,131,0,0.118,99,2,2
3130,621,0.607,574,715,702,691,748,194,193,160,0,0.179,80,2,2
3140,601,0.587,591,674,738,759,662,127,152,151,0,0.088,74,2,2
3150,632,0.618,724,827,646,562,793,146,138,148,1,0.314,42,2,2
3160,550,0.538,707,613,521,848,713,122,146,133,0,0.027,39,2,2
3170,645,0.63,776,703,693,668,651,114,135,109,1,0.279,86,2,2
3180,538,0.526,763,781,612,826,529,86,146,144,0,0.167,65,2,2
3190,520,0.508,536,640,731,635,687,152,80,115,0,0.123,64,2,2
3200,623,0.609,522,764,789,759,574,178,151,82,0,0.162,43,2,2
3210,553,0.541,544,560,582,622,515,145,119,96,0,0.159,63,2,2
3220,621,0.607,687,821,512,683,610,110,113,118,0,0.161,96,2,2
3230,639,0.625,554,526,617,720,730,132,118,144,1,0.248,46,2,2
3240,532,0.52,520,552,774,812,780,165,110,160,0,0.101,84,2,2
3250,593,0.58,509,553,551,647,659,193,93,129,0,0.047,57,2,2
3260,572,0.559,834,521,529,690,759,156,138,166,0,0.054,37,2,2
3270,638,0.624,789,837,747,626,574,184,155,128,1,0.141,108,2,2
3280,612,0.598,653,773,595,713,793,160,166,167,0,0.093,79,2,2
3290,588,0.575,819,656,655,638,620,144,186,98,0,0.169,38,2,2
3300,619,0.605,837,806,640,582,676,149,191,135,0,0.135,105,2,2
3310,579,0.566,716,619,674,522,712,100,186,92,0,0.056,62,2,2
3320,530,0.518,772,780,593,700,520,163,162,162,0,0.2,41,2,2
3330,620,0.606,803,527,540,802,645,157,178,187,0,0.154,100,2,2
3340,619,0.605,530,515,636,828,665,154,133,135,0,0.043,115,2,2
3350,628,0.614,842,672,736,661,715,87,86,115,1,0.267,47,2,2
3360,589,0.576,648,527,809,564,520,186,178,92,0,0.165,86,2,2
3370,573,0.56,637,552,543,802,552,153,125,92,0,0.182,66,2,2
3380,521,0.509,836,637,662,610,601,96,91,133,0,0.145,53,2,2
3390,641,0.627,687,845,729,820,839,198,107,95,1,0.164,76,2,2
3400,611,0.597,685,782,680,669,686,126,173,184,0,0.036,63,2,2
3410,552,0.54,554,506,743,812,625,91,95,159,0,0.133,72,2,2
3420,630,0.616,806,659,830,763,724,166,168,199,1,0.161,101,2,2
3430,578,0.565,631,603,694,656,597,177,107,156,0,0.012,108,2,2
3440,523,0.511,589,603,618,632,811,175,163,129,0,0.193,104,2,2
3450,547,0.535,777,732,516,558,589,187,150,185,0,0.124,86,2,2
3460,564,0.551,838,766,680,567,820,128,126,131,0,0.145,117,2,2
3470,576,0.563,546,658,673,741,781,192,193,84,0,0.126,113,2,2
3480,573,0.56,660,725,514,723,560,100,125,148,0,0.055,35,2,2
3490,605,0.591,709,577,701,801,722,173,82,173,0,0.089,35,2,2
3500,627,0.613,660,708,739,830,832,129,90,174,1,0.252,57,2,2
3510,535,0.523,567,751,547,683,819,138,169,141,0,0.052,105,2,2
3520,608,0.594,773,518,810,653,759,187,194,108,0,0.071,88,2,2
3530,536,0.524,606,798,744,835,746,87,92,185,0,0.155,37,2,2
3540,613,0.599,820,538,580,686,583,167,193,165,0,0.121,115,2,2
3550,593,0.58,535,600,655,754,670,164,167,121,0,0.103,95,2,2
3560,610,0.596,777,600,654,848,640,124,89,179,0,0.031,38,2,2
3570,553,0.541,628,659,588,592,826,192,146,163,0,0.151,49,2,2
3580,618,0.604,612,590,845,705,516,97,124,195,0,0.115,113,2,2
3590,601,0.587,823,613,756,557,653,188,99,195,0,0.101,116,2,2
3600,560,0.547,604,692,777,736,720,147,148,90,0,0.116,85,2,2
3610,618,0.604,575,781,608,687,698,126,198,150,0,0.179,55,2,2
3620,542,0.53,583,741,615,608,720,87,120,191,0,0.119,48,2,2
3630,565,0.552,823,770,694,779,782,119,142,140,0,0.139,65,2,2
3640,543,0.531,523,503,822,789,680,199,195,102,0,0.078,98,2,2
3650,581,0.568,668,812,748,687,553,149,180,136,0,0.04,39,2,2
3660,622,0.608,584,816,711,502,678,165,126,147,0,0.045,105,2,2
3670,606,0.592,813,805,529,689,524,191,106,130,0,0.025,107,2,2
3680,642,0.628,546,727,538,515,521,164,133,100,1,0.252,101,2,2
3690,578,0.565,786,701,531,661,754,88,160,90,0,0.096,39,2,2
3700,536,0.524,823,547,610,652,622,100,180,181,0,0.142,94,2,2
3710,570,0.557,791,580,587,693,603,94,175,118,0,0.184,99,2,2
3720,641,0.627,666,625,812,580,750,120,172,152,1,0.163,42,2,2
3730,603,0.589,807,744,502,836,562,128,155,191,0,0.087,76,2,2
3740,584,0.571,836,770,599,531,627,147,97,192,0,0.156,112,2,2
3750,597,0.584,813,788,769,661,688,198,83,167,0,0.1,88,2,2
3760,640,0.626,667,838,692,782,835,85,183,92,1,0.263,93,2,2
3770,599,0.586,542,588,647,594,650,81,199,101,0,0.159,86,2,2
3780,526,0.514,705,613,771,582,678,161,195,159,0,0.01,101,2,2
3790,632,0.618,511,625,552,830,782,91,96,85,1,0.267,34,2,2
3800,597,0.584,568,617,558,532,817,129,191,184,0,0.136,48,2,2
3810,642,0.628,546,666,788,640,583,133,86,158,1,0.16,116,2,2
3820,647,0.632,809,747,528,779,837,142,153,184,1,0.122,86,2,2
3830,581,0.568,656,701,516,821,505,137,148,107,0,0.111,91,2,2
3840,601,0.587,718,676,703,570,765,177,168,114,0,0.126,109,2,2
3850,543,0.531,573,665,521,653,794,170,108,190,0,0.059,49,2,2
3860,627,0.613,583,821,808,789,822,85,158,106,1,0.21,39,2,2
3870,615,0.601,547,825,732,599,558,81,108,147,0,0.023,94,2,2
3880,529,0.517,808,578,814,649,547,100,199,101,0,0.136,59,2,2
3890,547,0.535,800,567,506,804,636,115,162,80,0,0.08,39,2,2
3900,565,0.552,605,787,761,675,665,96,153,193,0,0.087,56,2,2
3910,604,0.59,626,770,631,592,572,106,105,98,0,0.109,46,2,2
3920,560,0.547,669,711,667,538,744,102,190,175,0,0.003,81,2,2
3930,582,0.569,724,568,798,789,795,154,140,129,0,0.043,96,2,2
3940,594,0.581,515,837,593,803,637,161,117,98,0,0.187,65,2,2
3950,596,0.583,673,820,590,737,763,130,189,185,0,0.184,110,2,2
3960,626,0.612,844,794,783,681,536,88,161,135,1,0.211,88,2,2
3970,577,0.564,622,687,729,667,613,186,116,158,0,0.165,47,2,2
3980,523,0.511,713,755,634,560,809,167,147,171,0,0.056,108,2,2
3990,522,0.51,741,620,601,537,840,191,108,84,0,0.189,103,2,2
4000,628,0.614,802,583,582,790,568,80,147,91,1,0.209,89,3,3
4010,542,0.53,652,776,560,818,551,167,104,188,0,0.043,84,3,3
4020,574,0.561,535,609,676,813,794,159,176,192,0,0.181,114,3,3
4030,525,0.513,608,534,538,649,617,84,121,166,0,0.069,110,3,3
4040,576,0.563,713,784,738,664,586,92,111,125,0,0.086,52,3,3
4050,623,0.609,584,633,607,517,593,101,197,112,0,0.004,59,3,3
4060,641,0.627,637,614,661,700,733,107,90,157,1,0.132,68,3,3
4070,646,0.631,646,617,651,571,636,126,112,141,1,0.256,48,3,3
4080,617,0.603,640,745,592,738,704,127,128,196,0,0.187,93,3,3
4090,558,0.545,627,843,781,516,570,92,148,105,0,0.136,78,3,3
4100,577,0.564,804,602,808,692,740,141,96,122,0,0.135,54,3,3
4110,548,0.536,616,781,643,524,809,107,152,199,0,0.167,85,3,3
4120,605,0.591,835,617,732,698,705,108,162,98,0,0.081,95,3,3
4130,534,0.522,638,680,529,556,731,97,130,127,0,0.013,95,3,3
4140,541,0.529,505,703,738,684,791,158,171,195,0,0.196,86,3,3
4150,601,0.587,821,832,544,834,519,143,172,185,0,0.044,96,3,3
4160,583,0.57,539,558,561,631,559,195,154,174,0,0.044,59,3,3
4170,581,0.568,755,548,847,658,623,177,140,199,0,0.01,108,3,3
4180,577,0.564,817,794,813,708,710,143,123,108,0,0.034,88,3,3
4190,528,0.516,719,714,776,563,845,115,185,180,0,0.152,115,3,3
4200,595,0.582,669,768,766,553,515,87,183,138,0,0.048,86,3,3
4210,649,0.634,593,721,703,637,799,90,158,159,1,0.237,110,3,3
4220,634,0.62,845,778,645,817,723,192,141,117,1,0.308,96,3,3
4230,580,0.567,628,672,655,609,768,106,179,86,0,0.013,51,3,3
4240,542,0.53,825,839,839,703,660,107,87,80,0,0.052,66,3,3
4250,589,0.576,595,662,578,504,815,199,125,129,0,0.065,77,3,3
4260,575,0.562,686,731,754,603,576,181,97,81,0,0.05,37,3,3
4270,644,0.63,755,537,675,526,775,91,122,140,1,0.28,60,3,3
4280,580,0.567,846,662,642,752,768,192,114,195,0,0.072,104,3,3
4290,567,0.554,790,585,665,613,682,158,186,137,0,0.125,32,3,3
4300,604,0.59,624,637,838,524,567,140,108,98,0,0.135,72,3,3
4310,580,0.567,652,775,547,710,842,103,90,189,0,0.124,84,3,3
4320,578,0.565,550,648,767,549,745,192,121,163,0,0.119,67,3,3
4330,551,0.539,688,654,554,681,709,199,166,154,0,0.126,50,3,3
4340,606,0.592,558,844,681,838,820,143,150,83,0,0.036,94,3,3
4350,612,0.598,641,611,558,542,706,91,119,197,0,0.192,49,3,3
4360,609,0.595,593,512,821,792,729,145,115,133,0,0.148,55,3,3
4370,627,0.613,798,649,647,507,528,119,169,109,1,0.241,110,3,3
4380,635,0.621,643,817,734,506,544,138,190,135,1,0.195,77,3,3
4390,607,0.593,755,572,678,711,792,185,160,190,0,0.093,86,3,3
4400,614,0.6,721,775,730,808,618,91,128,96,0,0.178,93,3,3
4410,530,0.518,597,570,557,789,750,99,129,181,0,0.02,117,3,3
4420,571,0.558,770,583,792,625,795,151,119,187,0,0.031,85,3,3
4430,629,0.615,691,592,849,555,559,89,118,107,1,0.191,78,3,3
4440,532,0.52,535,600,781,585,503,174,161,143,0,0.173,67,3,3
4450,646,0.631,777,629,530,510,801,175,141,148,1,0.236,93,3,3
4460,647,0.632,737,611,815,842,644,144,198,174,1,0.263,86,3,3
4470,528,0.516,777,588,675,517,605,94,158,142,0,0.113,68,3,3
4480,551,0.539,539,647,717,718,581,156,159,152,0,0.112,92,3,3
4490,557,0.544,710,826,748,726,547,97,95,134,0,0.091,68,3,3
4500,608,0.594,723,817,836,728,576,139,169,93,0,0.046,83,3,3
4510,558,0.545,571,780,832,659,686,181,142,117,0,0.056,82,3,3
4520,615,0.601,699,746,571,817,684,85,157,111,0,0.073,39,3,3
4530,595,0.582,676,814,786,848,754,148,141,131,0,0.005,118,3,3
4540,550,0.538,753,712,749,583,512,124,121,193,0,0.125,78,3,3
4550,600,0.587,772,557,827,718,608,102,125,151,0,0.185,37,3,3
4560,630,0.616,686,768,728,655,688,95,198,81,1,0.223,111,3,3
4570,549,0.537,512,595,720,737,593,161,92,122,0,0.153,114,3,3
4580,631,0.617,554,836,615,642,700,131,153,187,1,0.13,82,3,3
4590,576,0.563,807,636,681,500,543,178,154,177,0,0.047,109,3,3
4600,534,0.522,639,736,571,654,689,91,144,186,0,0.078,71,3,3
4610,622,0.608,670,772,720,712,840,119,102,135,0,0.073,35,3,3
4620,621,0.607,691,809,699,732,726,194,90,167,0,0.066,78,3,3
4630,582,0.569,603,838,655,772,505,98,135,181,0,0.17,57,3,3
4640,638,0.624,792,743,567,713,717,128,122,115,1,0.211,87,3,3
4650,577,0.564,787,604,727,746,687,189,162,137,0,0.089,85,3,3
4660,648,0.633,709,803,795,596,707,193,83,117,1,0.138,56,3,3
4670,595,0.582,786,641,736,524,789,146,103,197,0,0.15,102,3,3
4680,623,0.609,509,710,822,651,504,146,137,106,0,0.157,109,3,3
4690,624,0.61,680,543,781,674,661,166,174,129,0,0.151,113,3,3
4700,606,0.592,675,682,628,745,588,145,109,82,0,0.086,50,3,3
4710,635,0.621,713,793,752,642,749,189,131,158,1,0.246,75,3,3
4720,640,0.626,569,612,611,802,590,97,100,171,1,0.225,115,3,3
4730,559,0.546,741,637,844,679,699,198,154,140,0,0.021,93,3,3
4740,574,0.561,536,555,736,848,696,152,138,191,0,0.148,31,3,3
4750,570,0.557,529,766,607,831,589,156,151,142,0,0.188,93,3,3
4760,641,0.627,593,602,722,685,683,190,113,198,1,0.131,60,3,3
4770,595,0.582,777,539,600,610,820,142,185,133,0,0.165,71,3,3
4780,541,0.529,665,598,707,507,689,126,96,96,0,0.031,119,3,3
4790,600,0.587,577,761,662,513,738,151,140,94,0,0.152,83,3,3
4800,532,0.52,740,744,662,559,505,148,165,137,0,0.084,78,3,3
4810,545,0.533,802,504,519,697,558,143,193,97,0,0.112,33,3,3
4820,533,0.521,512,543,518,562,738,187,114,160,0,0.071,64,3,3
4830,619,0.605,662,621,543,816,644,150,186,129,0,0.089,94,3,3
4840,577,0.564,627,738,823,795,686,159,171,95,0,0.031,91,3,3
4850,609,0.595,783,736,693,786,758,197,87,103,0,0.146,44,3,3
4860,564,0.551,763,570,602,624,812,159,178,109,0,0.063,103,3,3
4870,633,0.619,696,720,559,597,670,124,102,148,1,0.309,35,3,3
4880,627,0.613,503,592,505,787,605,97,94,119,1,0.182,102,3,3
4890,525,0.513,611,822,605,638,798,96,175,83,0,0.079,92,3,3
4900,560,0.547,713,790,521,692,649,191,198,90,0,0.198,106,3,3
4910,522,0.51,815,575,586,769,724,97,192,184,0,0.036,102,3,3
4920,602,0.588,624,674,568,546,755,166,109,104,0,0.026,57,3,3
4930,631,0.617,524,573,705,813,593,198,120,104,1,0.152,107,3,3
4940,567,0.554,725,765,598,510,584,100,165,124,0,0.027,36,3,3
4950,645,0.63,563,757,831,620,797,161,133,154,1,0.235,45,3,3
4960,537,0.525,686,845,643,761,738,127,121,155,0,0.08,89,3,3
4970,649,0.634,814,782,578,571,762,142,190,198,1,0.159,75,3,3
4980,643,0.629,511,640,753,542,516,142,160,199,1,0.283,65,3,3
4990,588,0.575,589,707,791,783,617,172,126,155,0,0.056,59,3,3
5000,533,0.521,570,679,623,792,784,146,94,179,0,0.106,76,3,3
5010,538,0.526,605,520,563,664,526,134,195,108,0,0.147,49,3,3
5020,582,0.569,663,723,771,645,529,124,98,166,0,0.039,63,3,3
5030,581,0.568,720,521,679,828,730,194,98,117,0,0.175,99,3,3
5040,598,0.585,647,508,787,549,837,84,99,166,0,0.072,104,3,3
5050,587,0.574,799,789,576,797,636,185,174,86,0,0.195,97,3,3
5060,647,0.632,662,840,688,838,594,132,111,145,1,0.202,88,3,3
5070,649,0.634,693,815,772,643,515,125,118,196,1,0.258,60,3,3
5080,648,0.633,840,503,826,805,594,160,176,154,1,0.25,94,3,3
5090,625,0.611,698,605,779,759,607,98,105,154,1,0.139,69,3,3
5100,594,0.581,694,511,694,782,681,145,128,95,0,0.115,31,3,3
5110,549,0.537,583,665,783,780,595,89,139,121,0,0.065,69,3,3
5120,624,0.61,541,802,745,707,736,101,136,163,0,0.147,56,3,3
5130,608,0.594,821,511,572,575,845,152,89,175,0,0.006,77,3,3
5140,579,0.566,565,820,623,663,658,136,157,145,0,0.161,58,3,3
5150,620,0.606,655,839,624,779,609,157,180,97,0,0.068,117,3,3
5160,647,0.632,813,831,649,535,672,115,101,157,1,0.319,109,3,3
5170,615,0.601,663,647,517,793,694,102,175,188,0,0.044,45,3,3
5180,623,0.609,742,730,705,697,836,188,166,93,0,0.069,90,3,3
5190,551,0.539,514,543,668,809,543,177,84,188,0,0.08,56,3,3
5200,623,0.609,755,705,834,542,744,110,178,96,0,0.03,112,3,3
5210,551,0.539,750,711,790,632,700,108,149,104,0,0.133,51,3,3
5220,588,0.575,718,588,571,746,628,163,123,166,0,0.166,104,3,3
5230,573,0.56,843,553,717,515,598,99,125,146,0,0.064,94,3,3
5240,630,0.616,628,836,693,839,825,87,108,191,1,0.193,80,3,3
5250,627,0.613,703,711,608,775,572,118,83,194,1,0.266,48,3,3
5260,605,0.591,551,610,841,542,710,151,195,151,0,0.105,71,3,3
5270,634,0.62,525,798,576,636,519,135,162,191,1,0.315,68,3,3
5280,530,0.518,653,541,510,793,597,122,98,143,0,0.05,35,3,3
5290,632,0.618,719,564,731,827,551,197,126,199,1,0.248,36,3,3
5300,580,0.567,823,653,639,550,616,116,125,132,0,0.185,117,3,3
5310,532,0.52,588,617,553,615,617,83,154,175,0,0.135,78,3,3
5320,641,0.627,510,847,714,778,527,186,190,136,1,0.283,55,3,3
5330,548,0.536,663,769,833,534,785,171,96,146,0,0.023,109,3,3
5340,612,0.598,672,578,609,716,605,126,132,143,0,0.091,67,3,3
5350,526,0.514,777,836,709,668,829,89,136,86,0,0.08,79,3,3
5360,571,0.558,660,500,735,687,503,96,83,122,0,0.043,119,3,3
5370,590,0.577,677,688,790,507,752,103,162,115,0,0.106,79,3,3
5380,562,0.549,782,531,833,645,655,108,95,178,0,0.174,76,3,3
5390,550,0.538,759,516,538,803,538,184,83,109,0,0.063,59,3,3
5400,585,0.572,607,767,721,791,517,169,132,150,0,0.065,30,3,3
5410,609,0.595,586,589,736,569,543,151,103,165,0,0.103,48,3,3
5420,614,0.6,753,529,748,532,728,91,197,173,0,0.068,56,3,3
5430,595,0.582,746,528,660,734,689,196,94,81,0,0.005,81,3,3
5440,537,0.525,758,634,670,709,735,117,116,137,0,0.167,62,3,3
5450,614,0.6,510,567,709,695,597,172,167,101,0,0.165,95,3,3
5460,544,0.532,684,584,554,750,643,174,93,118,0,0.083,57,3,3
5470,638,0.624,764,649,714,696,541,132,175,138,1,0.229,103,3,3
5480,641,0.627,770,622,838,765,847,108,158,114,1,0.197,35,3,3
5490,557,0.544,576,848,646,566,507,198,163,126,0,0.001,33,3,3
5500,564,0.551,635,842,515,832,694,191,88,139,0,0.192,107,3,3
5510,590,0.577,514,826,601,725,777,103,192,180,0,0.009,73,3,3
5520,629,0.615,699,805,511,844,687,105,189,191,1,0.169,107,3,3
5530,640,0.626,778,670,633,524,517,141,92,122,1,0.177,107,3,3
5540,578,0.565,818,591,678,555,654,111,190,88,0,0.116,113,3,3
5550,587,0.574,801,748,822,505,779,127,182,173,0,0.047,74,3,3
5560,544,0.532,647,617,837,837,565,153,198,124,0,0.184,76,3,3
5570,633,0.619,610,748,702,646,534,182,132,105,1,0.286,43,3,3
5580,570,0.557,713,650,774,837,575,134,171,171,0,0.116,89,3,3
5590,547,0.535,679,752,625,676,536,105,178,177,0,0.11,69,3,3
5600,596,0.583,625,842,809,649,515,107,191,114,0,0.199,89,3,3
5610,591,0.578,735,713,584,781,731,164,104,184,0,0.071,94,3,3
5620,634,0.62,563,842,657,576,645,166,158,176,1,0.214,50,3,3
5630,610,0.596,800,587,802,667,669,86,129,127,0,0.14,113,3,3
5640,610,0.596,636,744,608,812,786,100,169,119,0,0.098,74,3,3
5650,606,0.592,647,600,745,616,591,96,107,120,0,0.058,95,3,3
5660,560,0.547,633,830,748,537,574,93,145,119,0,0.035,32,3,3
5670,618,0.604,724,651,518,645,740,195,167,188,0,0.179,64,3,3
5680,645,0.63,844,725,720,710,524,95,133,194,1,0.234,102,3,3
5690,599,0.586,735,533,844,544,633,100,149,175,0,0.035,77,3,3
5700,550,0.538,509,529,743,773,587,195,152,174,0,0.077,44,3,3
5710,528,0.516,608,636,653,708,771,94,178,131,0,0.092,98,3,3
5720,539,0.527,578,645,610,757,592,92,83,121,0,0.042,103,3,3
5730,624,0.61,507,566,690,755,508,173,196,90,0,0.172,71,3,3
5740,639,0.625,640,767,536,573,572,131,150,81,1,0.306,85,3,3
5750,622,0.608,795,819,840,650,656,157,169,130,0,0.153,98,3,3
5760,608,0.594,786,775,735,682,708,188,81,104,0,0.086,42,3,3
5770,625,0.611,569,694,685,598,581,154,197,163,1,0.247,93,3,3
5780,578,0.565,817,643,715,823,514,168,187,134,0,0.169,64,3,3
5790,621,0.607,599,506,529,804,643,190,197,183,0,0.05,80,3,3
5800,599,0.586,582,541,772,690,672,156,86,106,0,0.153,39,3,3
5810,525,0.513,714,633,784,625,836,125,103,154,0,0.049,55,3,3
5820,645,0.63,783,574,665,688,577,130,169,127,1,0.257,50,3,3
5830,622,0.608,721,814,827,678,775,191,175,165,0,0.161,88,3,3
5840,628,0.614,656,690,699,811,695,114,82,197,1,0.263,36,3,3
5850,606,0.592,540,622,830,797,677,142,179,116,0,0.121,88,3,3
5860,567,0.554,723,502,674,598,615,93,142,191,0,0.073,90,3,3
5870,536,0.524,523,615,650,837,549,197,157,193,0,0.014,108,3,3
5880,546,0.534,770,549,791,746,763,158,82,141,0,0.173,76,3,3
5890,617,0.603,688,755,721,740,768,80,113,141,0,0.071,108,3,3
5900,640,0.626,848,597,581,691,752,104,117,93,1,0.199,37,3,3
5910,649,0.634,708,588,555,593,592,163,164,140,1,0.159,51,3,3
5920,535,0.523,805,621,627,612,772,159,137,198,0,0.186,31,3,3
5930,613,0.599,580,824,568,647,515,130,184,116,0,0.084,102,3,3
5940,585,0.572,764,599,841,819,713,101,113,134,0,0.024,58,3,3
5950,629,0.615,596,517,826,596,500,167,83,83,1,0.135,111,3,3
5960,578,0.565,531,660,783,605,604,134,179,139,0,0.022,99,3,3
5970,553,0.541,586,555,612,512,517,133,156,192,0,0.135,72,3,3
5980,598,0.585,645,681,785,749,813,147,146,150,0,0.197,47,3,3
5990,559,0.546,569,692,567,804,551,193,186,108,0,0.107,50,3,3
6000,528,0.516,750,831,797,683,678,149,99,167,0,0.0,56,4,4
6010,584,0.571,681,740,523,582,818,136,134,139,0,0.075,91,4,4
6020,541,0.529,711,625,541,597,530,109,191,97,0,0.063,46,4,4
6030,629,0.615,777,555,556,790,613,80,131,164,1,0.136,99,4,4
6040,648,0.633,718,776,515,560,553,119,105,159,1,0.287,94,4,4
6050,536,0.524,686,522,680,826,607,158,113,125,0,0.151,97,4,4
6060,535,0.523,826,595,646,501,509,129,160,180,0,0.159,41,4,4
6070,551,0.539,839,628,738,557,697,162,97,85,0,0.037,74,4,4
6080,542,0.53,834,543,526,781,596,158,115,188,0,0.078,84,4,4
6090,588,0.575,816,629,554,596,835,166,117,198,0,0.155,109,4,4
6100,554,0.542,578,566,842,533,596,120,120,102,0,0.177,100,4,4
6110,551,0.539,786,581,542,604,500,140,93,131,0,0.071,35,4,4
6120,590,0.577,589,725,657,727,625,139,160,176,0,0.194,103,4,4
6130,570,0.557,703,555,707,540,531,94,141,106,0,0.041,57,4,4
6140,649,0.634,626,791,613,698,512,94,168,166,1,0.125,89,4,4
6150,593,0.58,524,600,675,616,665,120,124,167,0,0.041,69,4,4
6160,616,0.602,644,715,728,812,629,175,141,167,0,0.069,38,4,4
6170,536,0.524,616,805,593,667,702,164,100,97,0,0.056,84,4,4
6180,593,0.58,773,541,711,600,544,161,96,152,0,0.152,43,4,4
6190,601,0.587,546,606,607,764,704,158,106,94,0,0.017,48,4,4
6200,545,0.533,716,653,653,673,591,128,161,175,0,0.038,82,4,4
6210,561,0.548,774,772,575,676,683,142,82,186,0,0.17,78,4,4
6220,618,0.604,699,807,617,762,545,125,179,95,0,0.169,53,4,4
6230,581,0.568,628,548,524,765,617,159,95,137,0,0.15,101,4,4
6240,611,0.597,633,647,835,570,732,157,122,105,0,0.119,119,4,4
6250,545,0.533,620,800,711,562,567,105,154,81,0,0.161,43,4,4
6260,568,0.555,639,717,543,768,577,167,177,187,0,0.102,55,4,4
6270,567,0.554,565,733,586,578,704,102,160,127,0,0.031,31,4,4
6280,565,0.552,682,767,795,821,599,157,95,162,0,0.187,63,4,4
6290,619,0.605,777,517,511,679,622,197,173,196,0,0.038,80,4,4
6300,567,0.554,518,761,583,654,552,186,180,127,0,0.17,36,4,4
6310,530,0.518,642,691,568,522,680,116,88,94,0,0.039,32,4,4
6320,536,0.524,653,827,648,766,827,185,167,114,0,0.053,43,4,4
6330,529,0.517,639,793,618,737,533,120,89,96,0,0.158,46,4,4
6340,634,0.62,756,767,503,605,584,165,83,161,1,0.145,98,4,4
6350,531,0.519,580,829,761,624,806,90,142,136,0,0.098,41,4,4
6360,527,0.515,749,638,623,808,727,89,164,163,0,0.155,37,4,4
6370,625,0.611,752,513,739,741,841,100,187,129,1,0.299,68,4,4
6380,606,0.592,634,628,793,745,688,123,165,123,0,0.184,103,4,4
6390,641,0.627,644,550,741,793,550,89,199,151,1,0.224,50,4,4
6400,604,0.59,556,538,788,517,719,136,195,175,0,0.048,105,4,4
6410,546,0.534,573,609,679,531,733,105,104,154,0,0.007,52,4,4
6420,645,0.63,842,786,563,731,788,164,81,97,1,0.204,76,4,4
6430,603,0.589,790,745,609,753,587,151,109,123,0,0.02,82,4,4
6440,532,0.52,795,588,823,541,709,180,173,98,0,0.152,87,4,4
6450,573,0.56,707,820,639,779,533,132,87,97,0,0.109,86,4,4
6460,532,0.52,838,784,758,589,603,137,155,81,0,0.149,104,4,4
6470,601,0.587,576,757,626,781,587,155,95,102,0,0.149,69,4,4
6480,592,0.579,531,770,504,829,807,156,120,132,0,0.169,79,4,4
6490,646,0.631,762,539,754,642,739,179,164,149,1,0.162,94,4,4
6500,627,0.613,525,650,720,840,736,188,192,170,1,0.161,69,4,4
6510,642,0.628,643,688,754,567,603,159,110,132,1,0.122,54,4,4
6520,609,0.595,755,719,508,511,824,133,195,133,0,0.166,57,4,4
6530,629,0.615,725,832,602,605,557,157,154,121,1,0.175,67,4,4
6540,552,0.54,570,555,604,699,600,130,153,122,0,0.148,44,4,4
6550,524,0.512,720,582,681,806,509,91,197,83,0,0.009,47,4,4
6560,555,0.543,780,714,597,600,508,140,132,97,0,0.19,72,4,4
6570,582,0.569,620,725,604,759,848,120,124,129,0,0.058,108,4,4
6580,599,0.586,575,615,568,733,500,118,175,169,0,0.08,46,4,4
6590,610,0.596,843,673,669,745,589,128,141,117,0,0.084,52,4,4
6600,578,0.565,823,698,714,548,731,198,174,190,0,0.15,60,4,4
6610,567,0.554,550,798,597,715,676,169,159,136,0,0.173,106,4,4
6620,632,0.618,841,613,741,623,804,155,134,164,1,0.265,85,4,4
6630,563,0.55,685,842,745,583,706,102,107,95,0,0.08,66,4,4
6640,556,0.543,832,544,705,561,807,98,188,123,0,0.002,36,4,4
6650,636,0.622,567,533,693,824,554,89,175,121,1,0.156,70,4,4
6660,641,0.627,509,627,678,692,591,192,182,157,1,0.273,114,4,4
6670,568,0.555,764,644,568,557,684,141,174,131,0,0.187,90,4,4
6680,582,0.569,646,805,660,640,833,199,176,141,0,0.107,72,4,4
6690,641,0.627,607,765,594,761,812,80,150,137,1,0.309,50,4,4
6700,599,0.586,811,737,681,524,655,84,199,100,0,0.065,47,4,4
6710,576,0.563,592,518,692,736,776,178,184,119,0,0.146,96,4,4
6720,574,0.561,671,608,683,697,586,152,160,145,0,0.19,48,4,4
6730,637,0.623,690,541,541,814,775,152,96,106,1,0.227,76,4,4
6740,581,0.568,599,518,516,824,745,150,160,118,0,0.019,65,4,4
6750,548,0.536,695,806,651,513,824,97,121,136,0,0.122,112,4,4
6760,536,0.524,785,843,702,598,778,160,80,158,0,0.086,61,4,4
6770,534,0.522,687,713,782,710,575,99,144,164,0,0.15,78,4,4
6780,529,0.517,546,814,595,602,841,97,191,125,0,0.114,61,4,4
6790,537,0.525,666,581,571,809,753,113,150,115,0,0.026,47,4,4
6800,554,0.542,581,719,657,503,666,163,143,104,0,0.064,57,4,4
6810,542,0.53,803,665,810,567,587,168,80,86,0,0.01,86,4,4
6820,625,0.611,632,607,677,797,645,145,153,158,1,0.168,46,4,4
6830,581,0.568,796,751,618,661,697,193,181,124,0,0.056,87,4,4
6840,563,0.55,770,577,825,677,502,165,165,153,0,0.015,80,4,4
6850,595,0.582,592,675,644,506,768,199,145,83,0,0.058,39,4,4
6860,536,0.524,551,633,710,824,718,156,162,100,0,0.173,53,4,4
6870,522,0.51,823,667,675,809,790,174,135,187,0,0.156,118,4,4
6880,587,0.574,801,833,640,654,761,96,115,183,0,0.14,110,4,4
6890,596,0.583,679,565,807,847,670,169,101,190,0,0.172,84,4,4
6900,588,0.575,583,602,538,512,796,136,132,188,0,0.106,41,4,4
6910,616,0.602,556,539,835,627,672,114,82,199,0,0.104,34,4,4
6920,645,0.63,826,616,683,615,661,146,151,110,1,0.21,104,4,4
6930,585,0.572,569,796,519,725,698,118,96,124,0,0.033,40,4,4
6940,610,0.596,737,569,665,629,713,163,168,158,0,0.115,101,4,4
6950,571,0.558,788,777,613,738,632,182,97,117,0,0.087,66,4,4
6960,583,0.57,637,578,669,622,675,123,161,166,0,0.021,45,4,4
6970,617,0.603,655,501,849,668,814,148,198,171,0,0.026,82,4,4
6980,543,0.531,688,846,849,813,627,86,121,126,0,0.027,82,4,4
6990,572,0.559,723,653,547,646,563,172,133,130,0,0.2,68,4,4
7000,522,0.51,563,528,510,596,702,106,176,100,0,0.195,68,4,4
7010,565,0.552,565,590,663,610,837,144,142,178,0,0.13,64,4,4
7020,622,0.608,780,542,583,690,550,81,161,187,0,0.165,93,4,4
7030,528,0.516,757,687,729,688,509,193,155,115,0,0.013,114,4,4
7040,589,0.576,676,717,688,845,729,187,105,151,0,0.025,34,4,4
7050,642,0.628,643,756,643,758,546,174,92,199,1,0.212,109,4,4
7060,585,0.572,654,665,589,685,817,181,125,168,0,0.07,40,4,4
7070,616,0.602,616,698,819,520,699,194,197,142,0,0.152,114,4,4
7080,539,0.527,763,557,801,530,748,172,191,88,0,0.137,44,4,4
7090,548,0.536,579,791,583,536,841,150,102,120,0,0.105,109,4,4
7100,533,0.521,724,572,748,590,715,156,169,108,0,0.052,80,4,4
7110,591,0.578,714,720,541,634,541,115,184,106,0,0.026,87,4,4
7120,544,0.532,572,628,586,829,652,133,146,85,0,0.124,87,4,4
7130,585,0.572,813,581,586,501,703,101,116,99,0,0.057,53,4,4
7140,584,0.571,708,750,616,615,736,173,184,190,0,0.142,32,4,4
7150,594,0.581,715,800,832,523,534,103,107,179,0,0.042,109,4,4
7160,578,0.565,742,706,770,748,766,144,158,169,0,0.09,97,4,4
7170,594,0.581,602,796,677,714,814,118,82,155,0,0.176,36,4,4
7180,620,0.606,675,578,501,631,775,193,196,115,0,0.135,61,4,4
7190,520,0.508,687,555,534,611,785,133,115,134,0,0.103,118,4,4
7200,602,0.588,564,824,627,806,521,167,186,188,0,0.109,82,4,4
7210,587,0.574,791,679,680,668,521,145,100,179,0,0.126,73,4,4
7220,558,0.545,784,809,589,584,772,159,139,110,0,0.085,102,4,4
7230,568,0.555,600,501,743,675,737,93,138,176,0,0.137,87,4,4
7240,521,0.509,742,796,710,622,728,161,95,83,0,0.098,41,4,4
7250,533,0.521,746,511,836,605,531,153,122,160,0,0.175,98,4,4
7260,619,0.605,645,508,561,684,528,193,157,104,0,0.063,44,4,4
7270,598,0.585,848,759,581,741,671,182,159,154,0,0.196,43,4,4
7280,633,0.619,561,819,601,709,754,99,137,191,1,0.281,118,4,4
7290,638,0.624,591,551,792,507,799,177,187,84,1,0.315,98,4,4
7300,551,0.539,788,625,566,529,613,155,108,82,0,0.076,119,4,4
7310,549,0.537,561,502,567,524,678,92,182,123,0,0.164,64,4,4
7320,649,0.634,745,796,671,563,530,187,126,81,1,0.181,111,4,4
7330,588,0.575,557,605,799,829,755,135,122,168,0,0.127,63,4,4
7340,590,0.577,754,554,822,502,525,136,103,132,0,0.159,99,4,4
7350,568,0.555,797,703,510,645,584,179,183,131,0,0.129,75,4,4
7360,633,0.619,754,529,763,597,812,190,152,194,1,0.263,49,4,4
7370,538,0.526,760,830,706,827,710,166,106,119,0,0.087,55,4,4
7380,602,0.588,669,666,687,668,788,162,180,162,0,0.163,45,4,4
7390,545,0.533,511,571,632,605,719,196,148,128,0,0.12,55,4,4
7400,532,0.52,660,606,778,734,517,193,196,109,0,0.072,55,4,4
7410,558,0.545,653,675,740,633,545,129,117,185,0,0.119,117,4,4
7420,591,0.578,829,772,746,685,569,157,101,197,0,0.097,35,4,4
7430,618,0.604,777,550,650,603,588,92,164,184,0,0.156,39,4,4
7440,528,0.516,578,551,768,725,550,137,113,114,0,0.017,32,4,4
7450,639,0.625,825,746,691,822,709,182,152,195,1,0.25,105,4,4
7460,640,0.626,593,628,590,591,562,108,161,91,1,0.222,106,4,4
7470,556,0.543,672,707,523,598,638,198,137,125,0,0.048,58,4,4
7480,579,0.566,541,798,707,829,691,111,143,194,0,0.054,31,4,4
7490,585,0.572,665,530,731,781,528,146,157,104,0,0.009,77,4,4
7500,586,0.573,845,793,586,648,748,144,100,106,0,0.104,99,4,4
7510,563,0.55,527,516,626,667,743,82,155,182,0,0.043,105,4,4
7520,565,0.552,713,714,657,568,584,90,148,178,0,0.108,95,4,4
7530,613,0.599,673,664,614,719,530,90,166,81,0,0.186,56,4,4
7540,622,0.608,600,520,557,679,840,172,99,140,0,0.133,67,4,4
7550,544,0.532,620,525,668,822,724,80,130,84,0,0.043,42,4,4
7560,567,0.554,812,790,831,593,760,177,101,182,0,0.006,106,4,4
7570,643,0.629,808,568,603,745,660,151,167,129,1,0.229,113,4,4
7580,635,0.621,831,704,538,588,755,175,167,191,1,0.21,76,4,4
7590,647,0.632,677,576,687,514,791,192,142,148,1,0.184,115,4,4
7600,593,0.58,779,804,645,762,503,169,148,139,0,0.086,84,4,4
7610,548,0.536,650,744,769,578,788,104,100,96,0,0.103,52,4,4
7620,612,0.598,775,657,774,680,576,161,102,141,0,0.166,62,4,4
7630,537,0.525,572,688,516,518,718,149,178,199,0,0.067,63,4,4
7640,593,0.58,701,843,840,510,846,95,169,140,0,0.138,109,4,4
7650,535,0.523,511,790,740,520,677,122,179,191,0,0.037,46,4,4
7660,546,0.534,652,565,636,591,816,117,82,163,0,0.057,99,4,4
7670,574,0.561,756,600,697,800,725,126,158,188,0,0.164,55,4,4
7680,565,0.552,754,621,530,814,784,185,175,96,0,0.099,43,4,4
7690,543,0.531,608,690,846,524,686,111,195,161,0,0.183,47,4,4
7700,583,0.57,827,681,585,552,847,178,186,142,0,0.16,40,4,4
7710,619,0.605,586,514,600,664,528,193,186,105,0,0.124,31,4,4
7720,569,0.556,665,778,558,589,830,107,199,145,0,0.175,37,4,4
7730,537,0.525,549,617,701,690,822,132,118,157,0,0.037,85,4,4
7740,558,0.545,780,520,670,514,710,127,165,100,0,0.185,89,4,4
7750,569,0.556,650,640,568,759,833,151,88,194,0,0.011,64,4,4
7760,616,0.602,742,740,836,542,594,177,85,165,0,0.112,107,4,4
7770,619,0.605,511,736,821,757,836,175,86,173,0,0.078,57,4,4
7780,589,0.576,843,761,782,837,843,180,199,103,0,0.2,63,4,4
7790,543,0.531,820,773,543,831,812,186,107,183,0,0.081,100,4,4
7800,635,0.621,592,541,783,709,705,161,171,103,1,0.219,37,4,4
7810,572,0.559,599,760,804,785,827,182,142,126,0,0.03,55,4,4
7820,526,0.514,626,591,689,552,741,181,83,185,0,0.071,111,4,4
7830,526,0.514,729,655,696,822,722,190,185,99,0,0.129,112,4,4
7840,623,0.609,822,762,688,789,557,88,127,194,0,0.034,111,4,4
7850,544,0.532,577,607,780,538,618,158,159,106,0,0.08,103,4,4
7860,547,0.535,712,622,705,739,838,109,101,82,0,0.169,111,4,4
7870,521,0.509,703,809,761,606,750,119,187,172,0,0.186,31,4,4
7880,521,0.509,848,724,701,725,735,134,151,180,0,0.121,89,4,4
7890,525,0.513,735,626,603,736,654,80,186,195,0,0.089,62,4,4
7900,551,0.539,696,772,763,556,797,177,88,199,0,0.078,116,4,4
7910,573,0.56,583,741,780,822,751,141,134,125,0,0.074,53,4,4
7920,541,0.529,638,675,507,794,734,114,128,125,0,0.113,67,4,4
7930,611,0.597,795,533,578,735,772,112,126,189,0,0.146,81,4,4
7940,528,0.516,788,612,704,685,840,148,89,85,0,0.109,42,4,4
7950,576,0.563,738,801,509,732,694,90,91,89,0,0.047,54,4,4
7960,530,0.518,617,663,538,552,717,157,182,135,0,0.038,30,4,4
7970,549,0.537,767,790,832,679,734,166,147,131,0,0.174,109,4,4
7980,594,0.581,724,557,592,691,602,91,86,134,0,0.194,91,4,4
7990,617,0.603,832,791,844,651,644,81,92,110,0,0.16,57,4,4
8000,552,0.54,775,669,639,700,522,151,175,191,0,0.042,43,5,5
8010,596,0.583,584,608,530,728,739,186,133,84,0,0.106,42,5,5
8020,608,0.594,598,546,826,566,561,188,118,116,0,0.018,115,5,5
8030,571,0.558,590,788,836,797,703,191,189,106,0,0.088,37,5,5
8040,625,0.611,563,622,753,613,519,95,96,159,1,0.225,48,5,5
8050,557,0.544,680,848,604,599,589,110,123,139,0,0.038,105,5,5
8060,598,0.585,572,675,595,844,602,97,158,175,0,0.198,35,5,5
8070,635,0.621,662,725,729,681,748,141,148,161,1,0.273,45,5,5
8080,615,0.601,845,743,585,683,620,155,196,171,0,0.112,99,5,5
8090,542,0.53,636,813,686,720,545,101,143,87,0,0.006,49,5,5
8100,558,0.545,792,677,661,830,603,112,110,133,0,0.168,73,5,5
8110,641,0.627,612,817,522,545,811,86,197,168,1,0.201,90,5,5
8120,632,0.618,543,627,657,772,814,89,178,163,1,0.29,47,5,5
8130,581,0.568,814,676,727,690,659,89,90,181,0,0.194,99,5,5
8140,553,0.541,644,731,703,712,539,98,146,161,0,0.125,82,5,5
8150,602,0.588,802,761,771,699,739,97,131,127,0,0.085,72,5,5
8160,632,0.618,736,637,826,810,628,128,115,100,1,0.298,66,5,5
8170,574,0.561,524,626,733,708,592,173,150,176,0,0.095,100,5,5
8180,530,0.518,828,511,534,727,719,136,92,102,0,0.137,112,5,5
8190,607,0.593,579,789,830,658,627,141,92,110,0,0.042,31,5,5
8200,576,0.563,574,533,695,830,528,145,95,118,0,0.182,106,5,5
8210,643,0.629,518,601,576,728,796,154,167,149,1,0.164,90,5,5
8220,622,0.608,825,656,693,774,823,137,149,192,0,0.193,86,5,5
8230,611,0.597,785,652,724,626,692,194,85,97,0,0.088,39,5,5
8240,596,0.583,839,551,694,705,786,170,96,134,0,0.191,65,5,5
8250,572,0.559,644,585,652,501,841,84,83,115,0,0.139,35,5,5
8260,637,0.623,588,653,666,660,769,135,179,160,1,0.315,50,5,5
8270,535,0.523,619,839,719,507,843,82,168,98,0,0.148,95,5,5
8280,643,0.629,701,649,545,612,590,92,112,84,1,0.17,119,5,5
8290,640,0.626,833,651,822,738,614,142,192,173,1,0.302,77,5,5
8300,531,0.519,655,671,795,676,840,136,166,163,0,0.161,93,5,5
8310,640,0.626,725,701,829,715,542,198,102,106,1,0.241,87,5,5
8320,556,0.543,633,820,521,587,652,158,169,151,0,0.061,80,5,5
8330,621,0.607,752,745,726,605,692,139,125,115,0,0.162,87,5,5
8340,530,0.518,767,669,538,638,791,131,110,112,0,0.105,42,5,5
8350,577,0.564,683,651,700,627,786,134,184,89,0,0.136,89,5,5
8360,534,0.522,758,798,697,822,555,142,154,94,0,0.038,39,5,5
8370,576,0.563,549,570,581,604,587,81,183,163,0,0.05,72,5,5
8380,613,0.599,797,632,564,789,756,162,81,164,0,0.159,49,5,5
8390,607,0.593,823,777,581,628,785,176,103,93,0,0.049,65,5,5
8400,543,0.531,810,707,779,704,651,133,105,145,0,0.052,109,5,5
8410,584,0.571,574,662,798,528,664,160,137,133,0,0.059,68,5,5
8420,548,0.536,637,686,703,541,849,111,111,121,0,0.144,61,5,5
8430,648,0.633,555,752,621,605,629,160,109,199,1,0.196,100,5,5
8440,541,0.529,789,609,548,628,572,163,132,162,0,0.068,69,5,5
8450,624,0.61,649,645,703,798,666,152,85,162,0,0.088,77,5,5
8460,526,0.514,771,536,710,664,624,160,143,169,0,0.067,115,5,5
8470,644,0.63,660,565,785,738,519,139,161,186,1,0.189,103,5,5
8480,556,0.543,631,576,588,752,843,145,127,112,0,0.023,87,5,5
8490,547,0.535,534,624,820,541,584,88,139,190,0,0.2,44,5,5
8500,588,0.575,604,819,540,714,570,135,102,187,0,0.035,54,5,5
8510,638,0.624,661,690,508,559,804,176,130,139,1,0.133,99,5,5
8520,581,0.568,848,513,663,744,834,87,105,115,0,0.102,77,5,5
8530,570,0.557,603,729,600,528,626,161,89,185,0,0.071,68,5,5
8540,558,0.545,776,564,770,687,816,99,89,166,0,0.161,63,5,5
8550,552,0.54,730,816,765,681,839,144,156,80,0,0.093,34,5,5
8560,547,0.535,722,522,608,606,644,192,177,92,0,0.022,43,5,5
8570,561,0.548,598,816,622,819,786,160,190,152,0,0.165,39,5,5
8580,578,0.565,696,697,529,519,547,152,81,116,0,0.047,30,5,5
8590,573,0.56,780,764,714,789,542,153,173,101,0,0.047,99,5,5
8600,613,0.599,693,531,605,703,500,196,151,127,0,0.018,79,5,5
8610,572,0.559,507,829,545,824,613,98,190,117,0,0.032,40,5,5
8620,539,0.527,776,837,812,677,829,177,105,109,0,0.066,102,5,5
8630,561,0.548,746,567,825,833,695,169,190,191,0,0.138,46,5,5
8640,589,0.576,818,830,652,603,574,150,105,135,0,0.175,51,5,5
8650,545,0.533,668,522,546,512,716,145,145,95,0,0.192,102,5,5
8660,550,0.538,584,681,814,796,611,145,181,175,0,0.154,83,5,5
8670,624,0.61,692,829,631,637,830,93,117,91,0,0.168,74,5,5
8680,594,0.581,752,668,784,773,519,190,93,113,0,0.179,78,5,5
8690,577,0.564,603,669,685,627,709,109,104,142,0,0.172,48,5,5
8700,522,0.51,735,841,727,641,508,141,173,100,0,0.196,105,5,5
8710,539,0.527,790,552,674,609,702,131,87,83,0,0.106,56,5,5
8720,621,0.607,546,593,547,739,846,164,131,163,0,0.11,97,5,5
8730,644,0.63,572,503,575,828,576,127,105,181,1,0.222,106,5,5
8740,577,0.564,774,587,710,576,576,137,107,196,0,0.1,95,5,5
8750,577,0.564,700,724,641,583,642,175,112,96,0,0.027,53,5,5
8760,566,0.553,611,643,708,723,542,87,195,82,0,0.178,41,5,5
8770,597,0.584,558,676,562,548,806,197,112,109,0,0.187,88,5,5
8780,601,0.587,754,591,778,705,593,176,124,141,0,0.094,108,5,5
8790,565,0.552,563,729,748,745,574,108,174,141,0,0.071,118,5,5
8800,607,0.593,812,838,565,649,519,112,151,104,0,0.065,75,5,5
8810,576,0.563,842,632,554,560,844,87,95,197,0,0.171,77,5,5
8820,580,0.567,770,692,649,630,601,133,93,115,0,0.081,111,5,5
8830,601,0.587,566,509,548,610,820,170,136,106,0,0.166,104,5,5
8840,590,0.577,582,556,848,770,610,180,198,155,0,0.042,59,5,5
8850,592,0.579,621,540,666,629,522,102,164,95,0,0.181,38,5,5
8860,570,0.557,819,551,708,537,599,144,97,142,0,0.159,80,5,5
8870,574,0.561,608,706,799,609,695,112,103,115,0,0.052,39,5,5
8880,628,0.614,639,689,593,728,562,163,104,91,1,0.199,50,5,5
8890,583,0.57,700,625,805,689,588,178,195,175,0,0.159,78,5,5
8900,544,0.532,827,824,604,646,778,88,197,173,0,0.178,79,5,5
8910,649,0.634,513,756,845,685,844,95,158,169,1,0.255,76,5,5
8920,533,0.521,720,651,610,682,838,151,113,81,0,0.185,56,5,5
8930,591,0.578,522,567,592,820,823,142,175,176,0,0.148,119,5,5
8940,635,0.621,706,768,693,651,736,167,90,138,1,0.182,115,5,5
8950,560,0.547,572,551,627,527,564,96,174,123,0,0.118,39,5,5
8960,557,0.544,730,740,569,603,703,132,157,123,0,0.038,103,5,5
8970,598,0.585,530,634,557,604,765,89,191,118,0,0.144,57,5,5
8980,638,0.624,566,741,798,712,807,180,135,155,1,0.185,97,5,5
8990,625,0.611,591,778,608,816,667,123,165,103,1,0.202,80,5,5
9000,535,0.523,777,556,561,826,741,169,151,149,0,0.032,59,5,5
9010,551,0.539,585,733,734,812,764,110,150,88,0,0.155,42,5,5
9020,554,0.542,776,819,679,789,662,94,199,175,0,0.101,35,5,5
9030,616,0.602,787,582,724,722,617,177,143,158,0,0.102,107,5,5
9040,645,0.63,770,743,572,525,709,171,198,130,1,0.242,102,5,5
9050,572,0.559,683,686,697,577,847,137,167,92,0,0.177,72,5,5
9060,538,0.526,648,718,621,710,779,105,124,107,0,0.042,111,5,5
9070,536,0.524,567,543,560,622,848,147,153,104,0,0.119,96,5,5
9080,608,0.594,697,781,699,598,526,168,97,133,0,0.035,30,5,5
9090,622,0.608,695,796,664,806,770,87,117,193,0,0.074,112,5,5
9100,622,0.608,637,601,833,676,668,162,109,84,0,0.152,100,5,5
9110,542,0.53,547,608,795,505,537,120,179,106,0,0.021,104,5,5
9120,536,0.524,743,826,546,748,578,189,92,90,0,0.179,119,5,5
9130,543,0.531,720,572,733,759,612,125,199,97,0,0.002,72,5,5
9140,612,0.598,602,623,509,828,686,110,107,139,0,0.139,32,5,5
9150,533,0.521,716,501,523,705,819,191,150,179,0,0.057,53,5,5
9160,610,0.596,666,706,781,564,503,108,80,186,0,0.186,79,5,5
9170,593,0.58,686,561,836,663,555,190,169,191,0,0.089,50,5,5
9180,589,0.576,617,697,704,713,555,110,165,116,0,0.01,76,5,5
9190,647,0.632,824,791,787,725,563,150,121,127,1,0.295,103,5,5
9200,579,0.566,756,564,738,788,537,104,105,156,0,0.176,88,5,5
9210,620,0.606,796,657,556,547,827,128,126,135,0,0.068,94,5,5
9220,608,0.594,780,756,659,733,630,128,98,139,0,0.193,58,5,5
9230,592,0.579,644,560,772,548,831,139,99,129,0,0.143,32,5,5
9240,569,0.556,677,792,545,669,770,112,159,90,0,0.013,49,5,5
9250,644,0.63,691,579,593,725,564,167,167,152,1,0.167,115,5,5
9260,645,0.63,588,560,770,593,806,106,165,153,1,0.268,90,5,5
9270,531,0.519,801,531,659,736,726,132,140,125,0,0.047,114,5,5
9280,523,0.511,807,746,658,702,611,163,115,133,0,0.07,83,5,5
9290,536,0.524,830,726,616,542,614,106,116,125,0,0.099,64,5,5
9300,599,0.586,727,646,621,580,672,105,101,198,0,0.047,87,5,5
9310,619,0.605,821,667,665,584,636,156,154,140,0,0.18,109,5,5
9320,521,0.509,605,571,625,669,704,136,160,182,0,0.105,117,5,5
9330,538,0.526,506,553,603,841,837,140,166,81,0,0.124,79,5,5
9340,550,0.538,788,579,510,753,786,127,189,126,0,0.056,107,5,5
9350,626,0.612,774,836,622,633,606,128,152,129,1,0.258,110,5,5
9360,542,0.53,553,753,734,558,663,82,137,167,0,0.014,84,5,5
9370,609,0.595,810,544,756,520,520,131,161,122,0,0.06,81,5,5
9380,632,0.618,799,659,765,819,731,158,148,147,1,0.203,57,5,5
9390,570,0.557,680,759,578,772,607,146,153,126,0,0.141,85,5,5
9400,648,0.633,790,819,685,558,500,82,146,116,1,0.166,112,5,5
9410,619,0.605,688,845,740,769,718,112,101,127,0,0.168,32,5,5
9420,540,0.528,728,670,722,712,781,120,178,117,0,0.099,117,5,5
9430,548,0.536,746,815,743,560,646,125,128,101,0,0.122,107,5,5
9440,642,0.628,641,543,643,832,554,130,181,118,1,0.178,62,5,5
9450,588,0.575,697,658,579,530,611,125,176,156,0,0.133,81,5,5
9460,593,0.58,540,576,686,551,586,188,175,92,0,0.192,98,5,5
9470,580,0.567,826,690,688,650,785,139,97,175,0,0.121,85,5,5
9480,616,0.602,612,624,631,620,696,117,177,105,0,0.083,30,5,5
9490,573,0.56,660,788,699,775,515,100,124,198,0,0.122,119,5,5
9500,581,0.568,786,541,511,820,733,152,82,194,0,0.101,119,5,5
9510,535,0.523,741,833,725,741,640,81,150,191,0,0.024,50,5,5
9520,566,0.553,702,584,666,571,797,180,88,104,0,0.175,118,5,5
9530,538,0.526,737,519,732,720,825,96,168,181,0,0.166,97,5,5
9540,606,0.592,806,837,653,727,763,160,174,116,0,0.102,56,5,5
9550,605,0.591,627,609,536,570,788,110,134,91,0,0.184,40,5,5
9560,551,0.539,556,665,687,841,518,195,163,135,0,0.141,43,5,5
9570,599,0.586,691,819,689,567,847,122,159,138,0,0.147,81,5,5
9580,538,0.526,648,777,764,508,782,96,123,124,0,0.044,37,5,5
9590,644,0.63,622,532,500,703,505,120,134,84,1,0.29,88,5,5
9600,601,0.587,820,838,635,524,824,134,119,162,0,0.157,111,5,5
9610,614,0.6,532,610,645,730,771,159,190,117,0,0.042,70,5,5
9620,582,0.569,844,659,537,649,807,108,95,155,0,0.185,46,5,5
9630,610,0.596,844,768,827,683,760,91,120,82,0,0.103,62,5,5
9640,569,0.556,709,528,538,846,599,124,96,135,0,0.197,75,5,5
9650,586,0.573,522,593,741,736,553,89,168,156,0,0.009,45,5,5
9660,647,0.632,728,816,585,755,708,166,197,179,1,0.184,78,5,5
9670,521,0.509,677,744,622,841,670,156,87,138,0,0.151,94,5,5
9680,523,0.511,594,624,540,753,506,166,167,148,0,0.1,98,5,5
9690,592,0.579,761,588,707,712,821,89,95,116,0,0.153,108,5,5
9700,551,0.539,546,609,699,709,653,89,110,176,0,0.058,58,5,5
9710,520,0.508,630,566,727,662,514,183,146,172,0,0.154,59,5,5
9720,594,0.581,815,795,829,719,646,82,115,122,0,0.025,44,5,5
9730,634,0.62,589,707,663,583,576,112,84,180,1,0.249,107,5,5
9740,533,0.521,603,838,674,553,710,174,174,88,0,0.065,82,5,5
9750,579,0.566,801,809,829,611,664,102,106,149,0,0.028,119,5,5
9760,596,0.583,805,623,518,756,795,111,101,191,0,0.028,95,5,5
9770,567,0.554,682,574,708,682,606,139,87,165,0,0.192,97,5,5
9780,609,0.595,835,594,825,744,589,138,98,107,0,0.016,101,5,5
9790,631,0.617,799,555,722,619,678,111,129,120,1,0.154,95,5,5
9800,585,0.572,797,748,575,636,663,184,171,117,0,0.113,62,5,5
9810,608,0.594,517,569,837,615,579,94,127,151,0,0.078,42,5,5
9820,576,0.563,698,516,787,554,768,126,166,141,0,0.142,83,5,5
9830,584,0.571,784,547,504,749,662,198,153,162,0,0.15,100,5,5
9840,585,0.572,697,827,727,780,671,139,126,119,0,0.098,36,5,5
9850,565,0.552,585,752,520,756,532,83,185,82,0,0.041,81,5,5
9860,547,0.535,569,812,753,643,523,148,120,185,0,0.064,106,5,5
9870,588,0.575,658,847,847,785,517,123,106,178,0,0.045,55,5,5
9880,634,0.62,815,724,716,555,530,180,138,81,1,0.301,68,5,5
9890,626,0.612,690,517,725,666,570,185,133,196,1,0.309,105,5,5
9900,580,0.567,799,620,823,524,659,163,193,174,0,0.007,33,5,5
9910,520,0.508,728,585,561,819,705,184,141,114,0,0.013,42,5,5
9920,649,0.634,610,704,755,806,643,97,86,124,1,0.144,65,5,5
9930,561,0.548,732,770,559,795,734,116,145,185,0,0.046,84,5,5
9940,624,0.61,606,722,579,733,683,123,136,85,0,0.037,61,5,5
9950,633,0.619,645,823,626,634,613,87,143,186,1,0.308,36,5,5
9960,522,0.51,693,609,720,503,743,85,117,105,0,0.019,40,5,5
9970,611,0.597,530,704,706,606,645,190,180,191,0,0.03,91,5,5
9980,635,0.621,672,534,783,520,807,114,185,176,1,0.276,80,5,5
9990,596,0.583,626,692,742,848,587,159,104,198,0,0.018,116,5,5
10000,549,0.537,555,537,510,566,514,50,56,50,0,0.122,0,OPEN,6
10010,542,0.53,528,525,586,544,592,61,81,69,0,0.063,0,OPEN,6
10020,505,0.494,566,500,526,539,596,63,118,55,0,0.089,0,OPEN,6
10030,488,0.477,576,528,560,569,578,73,72,59,0,0.13,0,OPEN,6
10040,510,0.499,548,516,555,544,529,93,104,68,0,0.056,0,OPEN,6
10050,505,0.494,518,506,525,578,537,52,115,92,0,0.008,0,OPEN,6
10060,540,0.528,599,592,523,538,567,93,54,104,0,0.055,0,OPEN,6
10070,499,0.488,528,525,582,525,536,102,79,52,0,0.181,0,OPEN,6
10080,512,0.5,506,548,572,540,576,103,118,76,0,0.044,0,OPEN,6
10090,533,0.521,509,512,562,592,534,110,103,57,0,0.168,0,OPEN,6
10100,510,0.499,529,585,520,575,510,51,99,90,0,0.192,0,OPEN,6
10110,472,0.461,579,550,567,586,583,74,79,60,0,0.019,0,OPEN,6
10120,495,0.484,522,555,551,547,519,51,80,76,0,0.011,0,OPEN,6
10130,547,0.535,503,512,599,534,571,115,55,80,0,0.054,0,OPEN,6
10140,490,0.479,573,522,502,531,519,78,101,95,0,0.043,0,OPEN,6
10150,530,0.518,571,570,569,510,581,112,70,52,0,0.054,0,OPEN,6
10160,479,0.468,526,511,506,516,564,113,75,64,0,0.02,0,OPEN,6
10170,502,0.491,561,546,594,534,564,74,106,81,0,0.182,0,OPEN,6
10180,532,0.52,576,591,500,550,569,57,117,54,0,0.096,0,OPEN,6
10190,508,0.497,522,567,551,503,546,70,105,115,0,0.096,0,OPEN,6
10200,518,0.506,515,516,583,586,597,83,82,75,0,0.014,0,OPEN,6
10210,532,0.52,586,540,585,557,597,59,64,91,0,0.097,0,OPEN,6
10220,486,0.475,559,508,535,572,579,85,97,100,0,0.19,0,OPEN,6
10230,539,0.527,573,579,567,521,576,55,75,52,0,0.017,0,OPEN,6
10240,529,0.517,562,564,551,589,575,63,117,77,0,0.121,0,OPEN,6
10250,526,0.514,599,565,589,549,513,65,103,92,0,0.004,0,OPEN,6
10260,491,0.48,567,518,565,538,572,68,65,103,0,0.106,0,OPEN,6
10270,487,0.476,522,584,510,538,567,74,112,79,0,0.025,0,OPEN,6
10280,530,0.518,599,550,597,508,575,51,54,111,0,0.075,0,OPEN,6
10290,474,0.463,558,567,508,592,521,76,59,110,0,0.129,0,OPEN,6
10300,475,0.464,561,504,569,562,555,108,112,108,0,0.107,0,OPEN,6
10310,473,0.462,547,531,550,551,598,83,85,119,0,0.08,0,OPEN,6
10320,485,0.474,558,552,518,597,588,90,96,103,0,0.01,0,OPEN,6
10330,488,0.477,561,598,592,558,564,117,77,67,0,0.04,0,OPEN,6
10340,488,0.477,554,556,505,500,507,100,74,96,0,0.001,0,OPEN,6
10350,479,0.468,555,511,532,570,516,110,59,80,0,0.175,0,OPEN,6
10360,486,0.475,549,536,581,561,589,78,81,60,0,0.137,0,OPEN,6
10370,504,0.493,532,517,536,512,573,113,50,112,0,0.094,0,OPEN,6
10380,479,0.468,583,506,555,579,536,78,61,66,0,0.073,0,OPEN,6
10390,495,0.484,582,511,520,541,560,107,103,83,0,0.02,0,OPEN,6
10400,504,0.493,514,564,589,598,524,108,55,101,0,0.041,0,OPEN,6
10410,490,0.479,570,592,595,531,552,108,118,111,0,0.126,0,OPEN,6
10420,487,0.476,598,580,555,523,565,62,111,103,0,0.137,0,OPEN,6
10430,472,0.461,536,536,502,562,534,101,77,67,0,0.041,0,OPEN,6
10440,505,0.494,532,563,525,547,539,66,89,56,0,0.123,0,OPEN,6
10450,525,0.513,530,558,557,511,547,80,112,88,0,0.121,0,OPEN,6
10460,517,0.505,570,553,577,574,570,78,97,105,0,0.084,0,OPEN,6
10470,478,0.467,596,533,544,587,508,56,65,68,0,0.066,0,OPEN,6
10480,480,0.469,575,560,541,512,511,69,99,85,0,0.014,0,OPEN,6
10490,538,0.526,536,511,598,539,553,51,99,90,0,0.004,0,OPEN,6
10500,478,0.467,561,585,546,504,575,50,93,71,0,0.036,0,OPEN,6
10510,488,0.477,579,530,566,586,541,75,62,107,0,0.121,0,OPEN,6
10520,472,0.461,554,588,590,557,562,101,73,58,0,0.088,0,OPEN,6
10530,522,0.51,579,523,520,599,539,111,119,118,0,0.161,0,OPEN,6
10540,511,0.5,549,560,503,571,587,66,106,97,0,0.111,0,OPEN,6
10550,549,0.537,589,532,530,546,505,83,102,63,0,0.192,0,OPEN,6
10560,542,0.53,573,580,511,569,518,90,102,78,0,0.01,0,OPEN,6
10570,533,0.521,523,588,515,551,579,55,86,53,0,0.153,0,OPEN,6
10580,507,0.496,540,591,580,513,570,100,114,101,0,0.138,0,OPEN,6
10590,526,0.514,578,581,598,529,597,91,60,76,0,0.1,0,OPEN,6
10600,508,0.497,571,517,576,544,587,61,98,80,0,0.098,0,OPEN,6
10610,513,0.501,591,563,576,524,550,56,55,73,0,0.192,0,OPEN,6
10620,478,0.467,535,539,592,523,547,112,118,102,0,0.063,0,OPEN,6
10630,514,0.502,589,513,528,505,506,86,102,67,0,0.102,0,OPEN,6
10640,507,0.496,558,500,567,543,546,84,109,101,0,0.178,0,OPEN,6
10650,477,0.466,579,540,502,595,568,63,75,119,0,0.026,0,OPEN,6
10660,509,0.498,550,504,576,531,579,50,103,60,0,0.009,0,OPEN,6
10670,494,0.483,539,531,587,527,577,52,111,76,0,0.041,0,OPEN,6
10680,494,0.483,560,543,596,545,513,57,97,63,0,0.048,0,OPEN,6
10690,476,0.465,578,587,548,554,512,105,105,64,0,0.129,0,OPEN,6
10700,504,0.493,587,596,515,507,592,94,89,103,0,0.161,0,OPEN,6
10710,528,0.516,593,552,526,546,579,55,104,93,0,0.056,0,OPEN,6
10720,481,0.47,519,544,563,558,592,71,96,78,0,0.001,0,OPEN,6
10730,546,0.534,508,523,514,535,512,93,85,110,0,0.027,0,OPEN,6
10740,509,0.498,592,526,500,533,567,70,82,56,0,0.004,0,OPEN,6
10750,472,0.461,550,578,594,553,579,108,55,78,0,0.023,0,OPEN,6
10760,529,0.517,521,523,580,584,550,99,60,105,0,0.171,0,OPEN,6
10770,508,0.497,568,547,556,520,581,69,64,118,0,0.033,0,OPEN,6
10780,545,0.533,561,584,536,505,570,75,57,53,0,0.078,0,OPEN,6
10790,490,0.479,524,514,534,548,542,90,86,106,0,0.03,0,OPEN,6
10800,530,0.518,513,567,552,583,533,73,69,118,0,0.026,0,OPEN,6
10810,476,0.465,535,537,579,551,514,95,72,61,0,0.023,0,OPEN,6
10820,484,0.473,592,548,520,514,513,91,64,112,0,0.058,0,OPEN,6
10830,522,0.51,551,562,572,552,556,101,92,56,0,0.016,0,OPEN,6
10840,473,0.462,568,504,574,591,579,90,53,51,0,0.056,0,OPEN,6
10850,490,0.479,569,542,581,568,508,77,75,52,0,0.177,0,OPEN,6
10860,518,0.506,516,562,554,522,533,118,64,96,0,0.062,0,OPEN,6
10870,497,0.486,502,503,587,530,544,108,94,86,0,0.013,0,OPEN,6
10880,486,0.475,564,502,525,552,530,75,72,79,0,0.031,0,OPEN,6
10890,533,0.521,521,514,555,573,519,96,102,102,0,0.199,0,OPEN,6
10900,527,0.515,518,561,577,571,511,75,76,78,0,0.003,0,OPEN,6
10910,470,0.459,559,591,556,502,517,101,109,83,0,0.16,0,OPEN,6
10920,529,0.517,525,571,518,521,592,82,87,84,0,0.162,0,OPEN,6
10930,536,0.524,582,509,590,514,510,73,53,62,0,0.111,0,OPEN,6
10940,506,0.495,547,570,500,559,511,70,60,93,0,0.083,0,OPEN,6
10950,513,0.501,577,597,533,524,503,113,65,59,0,0.176,0,OPEN,6
10960,504,0.493,582,505,518,558,552,57,59,116,0,0.141,0,OPEN,6
10970,484,0.473,586,522,581,545,582,77,75,59,0,0.102,0,OPEN,6
10980,524,0.512,565,566,506,554,579,80,68,77,0,0.03,0,OPEN,6
10990,488,0.477,586,519,512,576,542,60,97,64,0,0.079,0,OPEN,6
11000,519,0.507,527,582,503,521,585,88,83,93,0,0.005,0,OPEN,6
11010,481,0.47,501,527,573,585,580,116,59,106,0,0.13,0,OPEN,6
11020,506,0.495,576,590,563,578,585,89,109,97,0,0.085,0,OPEN,6
11030,488,0.477,571,532,543,591,536,85,70,51,0,0.044,0,OPEN,6
11040,499,0.488,575,543,511,550,548,73,73,109,0,0.085,0,OPEN,6
11050,541,0.529,573,571,563,519,571,77,51,92,0,0.018,0,OPEN,6
11060,504,0.493,522,545,514,501,560,113,101,85,0,0.021,0,OPEN,6
11070,536,0.524,546,582,501,543,563,77,103,116,0,0.046,0,OPEN,6
11080,532,0.52,524,585,547,538,546,70,79,80,0,0.18,0,OPEN,6
11090,495,0.484,521,520,500,536,576,95,58,66,0,0.182,0,OPEN,6
11100,528,0.516,553,585,511,563,505,102,65,54,0,0.046,0,OPEN,6
11110,483,0.472,543,562,593,551,525,102,78,68,0,0.09,0,OPEN,6
11120,492,0.481,534,594,552,598,595,107,54,65,0,0.012,0,OPEN,6
11130,521,0.509,519,565,583,581,500,107,93,55,0,0.096,0,OPEN,6
11140,519,0.507,571,587,519,513,504,90,89,83,0,0.025,0,OPEN,6
11150,514,0.502,570,579,570,526,577,93,82,82,0,0.142,0,OPEN,6
11160,505,0.494,506,531,566,538,592,73,119,103,0,0.027,0,OPEN,6
11170,549,0.537,574,531,544,560,569,102,100,105,0,0.144,0,OPEN,6
11180,531,0.519,517,563,576,529,548,90,62,83,0,0.112,0,OPEN,6
11190,494,0.483,565,599,517,504,518,91,67,81,0,0.009,0,OPEN,6
11200,506,0.495,548,585,512,554,516,58,93,95,0,0.199,0,OPEN,6
11210,506,0.495,518,562,591,545,593,75,95,95,0,0.145,0,OPEN,6
11220,532,0.52,571,502,527,528,586,67,84,96,0,0.02,0,OPEN,6
11230,544,0.532,558,574,558,546,594,62,82,111,0,0.109,0,OPEN,6
11240,513,0.501,557,505,588,514,503,105,113,117,0,0.079,0,OPEN,6
11250,525,0.513,531,508,562,571,577,82,70,104,0,0.065,0,OPEN,6
11260,471,0.46,512,503,583,549,547,79,78,57,0,0.022,0,OPEN,6
11270,495,0.484,549,501,554,555,513,55,110,61,0,0.089,0,OPEN,6
11280,488,0.477,543,588,594,558,536,74,65,87,0,0.144,0,OPEN,6
11290,483,0.472,505,588,522,559,511,62,55,112,0,0.041,0,OPEN,6
11300,519,0.507,551,539,507,560,507,83,109,106,0,0.173,0,OPEN,6
11310,491,0.48,586,539,544,554,550,54,62,77,0,0.111,0,OPEN,6
11320,549,0.537,561,592,586,523,597,56,87,86,0,0.175,0,OPEN,6
11330,511,0.5,585,504,563,549,586,64,102,74,0,0.155,0,OPEN,6
11340,478,0.467,537,521,586,548,567,64,114,103,0,0.016,0,OPEN,6
11350,489,0.478,532,599,585,576,506,57,77,94,0,0.151,0,OPEN,6
11360,549,0.537,573,510,530,511,594,100,93,99,0,0.103,0,OPEN,6
11370,504,0.493,500,528,550,563,503,77,65,112,0,0.103,0,OPEN,6
11380,486,0.475,539,512,551,557,595,86,110,83,0,0.112,0,OPEN,6
11390,489,0.478,572,558,568,586,532,66,106,50,0,0.051,0,OPEN,6
11400,496,0.485,569,558,505,596,593,72,59,100,0,0.159,0,OPEN,6
11410,537,0.525,583,582,541,590,556,117,87,111,0,0.199,0,OPEN,6
11420,540,0.528,549,551,525,525,518,58,110,69,0,0.104,0,OPEN,6
11430,519,0.507,579,580,521,512,511,59,114,79,0,0.063,0,OPEN,6
11440,491,0.48,517,565,547,543,508,116,103,75,0,0.103,0,OPEN,6
11450,495,0.484,533,507,509,547,554,103,89,64,0,0.19,0,OPEN,6
11460,487,0.476,595,522,561,545,586,88,64,102,0,0.162,0,OPEN,6
11470,532,0.52,591,579,515,569,565,62,96,58,0,0.172,0,OPEN,6
11480,498,0.487,536,542,585,563,523,83,97,61,0,0.153,0,OPEN,6
11490,482,0.471,586,595,544,598,564,96,107,54,0,0.125,0,OPEN,6
11500,474,0.463,559,595,520,523,517,70,103,59,0,0.14,0,OPEN,6
11510,529,0.517,556,522,521,567,533,119,77,88,0,0.143,0,OPEN,6
11520,539,0.527,579,501,523,516,564,119,118,109,0,0.189,0,OPEN,6
11530,481,0.47,546,566,564,526,547,111,93,68,0,0.129,0,OPEN,6
11540,524,0.512,546,501,593,593,538,94,81,114,0,0.179,0,OPEN,6
11550,480,0.469,509,558,589,554,519,66,117,54,0,0.138,0,OPEN,6
11560,515,0.503,551,509,545,527,596,92,75,104,0,0.065,0,OPEN,6
11570,498,0.487,526,517,559,573,568,70,73,52,0,0.084,0,OPEN,6
11580,531,0.519,501,565,541,533,541,69,117,94,0,0.062,0,OPEN,6
11590,511,0.5,546,504,588,548,536,83,119,67,0,0.187,0,OPEN,6
11600,547,0.535,539,516,559,598,592,91,114,102,0,0.053,0,OPEN,6
11610,474,0.463,523,527,561,516,519,52,86,64,0,0.16,0,OPEN,6
11620,477,0.466,512,547,502,564,572,80,75,105,0,0.14,0,OPEN,6
11630,531,0.519,512,568,540,576,500,96,53,112,0,0.187,0,OPEN,6
11640,497,0.486,505,526,511,561,551,97,116,95,0,0.114,0,OPEN,6
11650,484,0.473,570,535,513,577,502,116,68,103,0,0.182,0,OPEN,6
11660,502,0.491,512,598,550,531,574,73,84,119,0,0.169,0,OPEN,6
11670,513,0.501,561,598,567,532,576,105,85,103,0,0.09,0,OPEN,6
11680,512,0.5,511,510,569,511,590,90,74,52,0,0.025,0,OPEN,6
11690,497,0.486,522,547,566,541,587,89,55,69,0,0.02,0,OPEN,6
11700,496,0.485,520,512,585,534,546,77,70,67,0,0.09,0,OPEN,6
11710,506,0.495,520,513,588,590,559,72,78,96,0,0.161,0,OPEN,6
11720,507,0.496,582,526,588,586,592,64,108,52,0,0.066,0,OPEN,6
11730,549,0.537,516,582,510,547,504,118,113,63,0,0.044,0,OPEN,6
11740,541,0.529,568,506,515,554,577,105,53,97,0,0.108,0,OPEN,6
11750,505,0.494,569,579,592,599,537,111,97,59,0,0.168,0,OPEN,6
11760,498,0.487,577,503,543,555,541,62,95,82,0,0.113,0,OPEN,6
11770,548,0.536,556,568,569,566,547,82,85,82,0,0.099,0,OPEN,6
11780,496,0.485,590,571,561,595,525,115,61,71,0,0.033,0,OPEN,6
11790,537,0.525,536,537,595,510,500,74,91,101,0,0.12,0,OPEN,6
11800,525,0.513,562,580,507,558,544,76,101,67,0,0.123,0,OPEN,6
11810,485,0.474,565,504,581,502,590,119,56,99,0,0.068,0,OPEN,6
11820,548,0.536,546,532,542,590,528,106,54,109,0,0.195,0,OPEN,6
11830,471,0.46,569,542,503,555,592,108,58,52,0,0.012,0,OPEN,6
11840,512,0.5,590,599,595,500,556,102,65,100,0,0.022,0,OPEN,6
11850,524,0.512,500,589,527,552,557,109,108,71,0,0.171,0,OPEN,6
11860,518,0.506,541,526,538,582,524,87,73,73,0,0.057,0,OPEN,6
11870,519,0.507,565,513,552,531,595,97,88,89,0,0.173,0,OPEN,6
11880,546,0.534,575,507,578,525,511,92,100,112,0,0.002,0,OPEN,6
11890,496,0.485,508,538,564,570,589,56,116,59,0,0.068,0,OPEN,6
11900,522,0.51,594,586,556,590,585,76,103,53,0,0.098,0,OPEN,6
11910,517,0.505,582,541,502,590,502,77,112,80,0,0.033,0,OPEN,6
11920,490,0.479,599,552,586,575,588,103,106,69,0,0.151,0,OPEN,6
11930,476,0.465,528,547,592,512,502,51,65,55,0,0.103,0,OPEN,6
11940,474,0.463,555,570,597,531,548,62,79,74,0,0.155,0,OPEN,6
11950,528,0.516,584,527,557,519,533,54,109,92,0,0.14,0,OPEN,6
11960,544,0.532,553,580,544,585,536,97,103,97,0,0.091,0,OPEN,6
11970,475,0.464,533,562,577,547,522,62,96,93,0,0.194,0,OPEN,6
11980,495,0.484,552,513,551,535,507,89,71,65,0,0.038,0,OPEN,6
11990,529,0.517,559,509,524,530,520,82,80,70,0,0.09,0,OPEN,6
12000,603,0.589,717,653,658,679,694,303,368,322,0,0.063,80,LIGHT_GRIP,7
12010,671,0.656,697,711,709,654,656,350,364,308,2,0.315,80,LIGHT_GRIP,7
12020,646,0.631,716,673,659,697,684,481,386,410,1,0.121,80,LIGHT_GRIP,7
12030,670,0.655,665,702,689,669,718,344,305,496,2,0.357,80,LIGHT_GRIP,7
12040,601,0.587,688,670,689,703,661,464,409,337,0,0.036,80,LIGHT_GRIP,7
12050,677,0.662,699,714,716,693,680,470,376,347,3,0.375,80,LIGHT_GRIP,7
12060,680,0.665,710,659,678,697,711,415,312,471,3,0.553,80,LIGHT_GRIP,7
12070,663,0.648,702,693,677,651,706,356,333,357,2,0.427,80,LIGHT_GRIP,7
12080,628,0.614,684,697,682,658,697,366,463,498,1,0.19,80,LIGHT_GRIP,7
12090,643,0.629,709,712,654,689,668,346,364,494,1,0.188,80,LIGHT_GRIP,7
12100,649,0.634,679,715,654,691,654,477,384,357,1,0.287,80,LIGHT_GRIP,7
12110,607,0.593,680,661,670,711,682,453,399,467,0,0.098,80,LIGHT_GRIP,7
12120,614,0.6,650,660,704,651,714,471,315,449,0,0.143,80,LIGHT_GRIP,7
12130,646,0.631,679,659,707,711,655,366,340,470,1,0.147,80,LIGHT_GRIP,7
12140,617,0.603,707,709,676,717,671,451,339,408,0,0.102,80,LIGHT_GRIP,7
12150,639,0.625,655,667,679,670,711,437,419,406,1,0.2,80,LIGHT_GRIP,7
12160,608,0.594,717,688,673,683,710,468,432,378,0,0.163,80,LIGHT_GRIP,7
12170,650,0.635,701,688,657,694,677,418,406,326,2,0.437,80,LIGHT_GRIP,7
12180,680,0.665,711,711,687,675,673,338,423,320,3,0.416,80,LIGHT_GRIP,7
12190,647,0.632,662,652,681,684,668,441,475,380,1,0.13,80,LIGHT_GRIP,7
12200,644,0.63,668,713,715,715,694,386,366,496,1,0.307,80,LIGHT_GRIP,7
12210,676,0.661,691,689,699,684,673,387,316,339,3,0.424,80,LIGHT_GRIP,7
12220,643,0.629,672,655,715,670,684,412,328,306,1,0.184,80,LIGHT_GRIP,7
12230,636,0.622,672,657,697,659,673,474,480,338,1,0.248,80,LIGHT_GRIP,7
12240,665,0.65,655,670,685,652,691,472,343,390,2,0.356,80,LIGHT_GRIP,7
12250,685,0.67,719,675,670,651,696,407,457,326,3,0.461,80,LIGHT_GRIP,7
12260,649,0.634,672,662,653,663,669,423,312,302,1,0.21,80,LIGHT_GRIP,7
12270,681,0.666,696,652,650,673,684,313,494,440,3,0.424,80,LIGHT_GRIP,7
12280,677,0.662,675,652,700,689,717,463,350,300,3,0.522,80,LIGHT_GRIP,7
12290,632,0.618,656,701,660,676,663,385,345,375,1,0.21,80,LIGHT_GRIP,7
12300,609,0.595,673,710,667,658,666,427,403,485,0,0.096,80,LIGHT_GRIP,7
12310,605,0.591,700,685,674,660,693,313,328,373,0,0.143,80,LIGHT_GRIP,7
12320,604,0.59,718,706,675,655,665,359,399,311,0,0.054,80,LIGHT_GRIP,7
12330,662,0.647,713,711,655,668,667,379,470,372,2,0.302,80,LIGHT_GRIP,7
12340,671,0.656,687,717,693,712,691,363,481,377,2,0.301,80,LIGHT_GRIP,7
12350,676,0.661,686,653,651,693,716,495,401,361,3,0.558,80,LIGHT_GRIP,7
12360,615,0.601,658,702,708,658,661,418,340,442,0,0.177,80,LIGHT_GRIP,7
12370,610,0.596,657,704,655,702,669,466,398,371,0,0.153,80,LIGHT_GRIP,7
12380,633,0.619,706,668,680,689,663,402,423,422,1,0.141,80,LIGHT_GRIP,7
12390,636,0.622,693,658,707,669,699,447,404,463,1,0.249,80,LIGHT_GRIP,7
12400,671,0.656,681,650,666,658,694,365,331,344,2,0.338,80,LIGHT_GRIP,7
12410,683,0.668,687,709,650,654,712,463,364,377,3,0.515,80,LIGHT_GRIP,7
12420,623,0.609,653,717,674,656,662,495,342,356,0,0.023,80,LIGHT_GRIP,7
12430,613,0.599,676,686,674,716,653,405,378,395,0,0.144,80,LIGHT_GRIP,7
12440,684,0.669,665,668,678,700,667,485,471,315,3,0.433,80,LIGHT_GRIP,7
12450,601,0.587,705,677,714,654,671,416,399,312,0,0.178,80,LIGHT_GRIP,7
12460,685,0.67,713,681,700,707,695,479,405,362,3,0.383,80,LIGHT_GRIP,7
12470,664,0.649,704,706,675,661,695,346,378,465,2,0.414,80,LIGHT_GRIP,7
12480,601,0.587,719,682,655,686,663,336,307,376,0,0.058,80,LIGHT_GRIP,7
12490,691,0.675,707,667,706,687,681,493,324,485,3,0.516,80,LIGHT_GRIP,7
12500,687,0.672,715,679,683,718,697,339,478,379,3,0.434,80,LIGHT_GRIP,7
12510,630,0.616,688,712,697,697,710,439,377,483,1,0.282,80,LIGHT_GRIP,7
12520,627,0.613,701,665,707,658,675,327,404,376,1,0.269,80,LIGHT_GRIP,7
12530,608,0.594,696,700,706,681,716,356,353,415,0,0.034,80,LIGHT_GRIP,7
12540,683,0.668,705,672,666,687,679,485,377,321,3,0.55,80,LIGHT_GRIP,7
12550,614,0.6,697,681,689,706,707,390,315,455,0,0.129,80,LIGHT_GRIP,7
12560,600,0.587,690,697,680,685,682,460,402,427,0,0.18,80,LIGHT_GRIP,7
12570,659,0.644,679,694,688,694,661,392,331,483,2,0.407,80,LIGHT_GRIP,7
12580,612,0.598,669,705,702,717,703,333,327,349,0,0.088,80,LIGHT_GRIP,7
12590,693,0.677,675,700,696,675,710,450,464,340,3,0.407,80,LIGHT_GRIP,7
12600,681,0.666,698,676,655,715,673,465,327,455,3,0.508,80,LIGHT_GRIP,7
12610,665,0.65,710,695,718,692,708,429,314,404,2,0.329,80,LIGHT_GRIP,7
12620,619,0.605,684,683,680,668,717,323,383,466,0,0.062,80,LIGHT_GRIP,7
12630,638,0.624,666,668,697,684,681,474,346,491,1,0.283,80,LIGHT_GRIP,7
12640,634,0.62,666,691,678,719,666,313,451,484,1,0.309,80,LIGHT_GRIP,7
12650,660,0.645,688,704,685,686,663,454,422,382,2,0.413,80,LIGHT_GRIP,7
12660,672,0.657,693,717,697,706,671,431,499,345,2,0.307,80,LIGHT_GRIP,7
12670,610,0.596,680,660,705,687,670,409,393,437,0,0.035,80,LIGHT_GRIP,7
12680,607,0.593,657,709,683,665,662,386,449,454,0,0.176,80,LIGHT_GRIP,7
12690,696,0.68,675,718,679,657,687,488,380,407,3,0.362,80,LIGHT_GRIP,7
12700,645,0.63,692,708,695,684,688,350,303,420,1,0.282,80,LIGHT_GRIP,7
12710,683,0.668,700,654,704,669,673,463,333,421,3,0.45,80,LIGHT_GRIP,7
12720,653,0.638,683,666,654,667,704,352,349,371,2,0.381,80,LIGHT_GRIP,7
12730,644,0.63,662,665,662,669,715,346,446,472,1,0.281,80,LIGHT_GRIP,7
12740,653,0.638,655,663,653,704,683,326,306,430,2,0.292,80,LIGHT_GRIP,7
12750,601,0.587,674,709,673,664,663,481,433,380,0,0.083,80,LIGHT_GRIP,7
12760,661,0.646,689,688,701,681,676,409,479,396,2,0.323,80,LIGHT_GRIP,7
12770,662,0.647,666,698,672,662,672,356,489,481,2,0.337,80,LIGHT_GRIP,7
12780,651,0.636,672,684,716,683,682,345,380,472,2,0.247,80,LIGHT_GRIP,7
12790,686,0.671,664,715,688,667,719,486,459,320,3,0.511,80,LIGHT_GRIP,7
12800,626,0.612,651,688,705,662,705,493,355,327,1,0.207,80,LIGHT_GRIP,7
12810,681,0.666,713,705,690,690,653,484,457,387,3,0.49,80,LIGHT_GRIP,7
12820,655,0.64,680,656,703,657,704,496,471,440,2,0.365,80,LIGHT_GRIP,7
12830,677,0.662,681,709,699,676,674,351,495,320,3,0.538,80,LIGHT_GRIP,7
12840,614,0.6,702,687,697,701,677,443,417,443,0,0.087,80,LIGHT_GRIP,7
12850,672,0.657,701,661,697,671,698,351,378,428,2,0.329,80,LIGHT_GRIP,7
12860,607,0.593,674,715,719,700,702,314,477,498,0,0.085,80,LIGHT_GRIP,7
12870,637,0.623,689,715,688,666,656,417,338,495,1,0.15,80,LIGHT_GRIP,7
12880,646,0.631,685,713,662,667,670,411,364,307,1,0.137,80,LIGHT_GRIP,7
12890,684,0.669,692,702,676,668,672,414,349,478,3,0.48,80,LIGHT_GRIP,7
12900,650,0.635,718,690,660,701,672,348,465,346,2,0.264,80,LIGHT_GRIP,7
12910,665,0.65,711,678,687,682,678,413,378,322,2,0.297,80,LIGHT_GRIP,7
12920,692,0.676,694,657,678,651,699,364,407,319,3,0.463,80,LIGHT_GRIP,7
12930,636,0.622,676,696,655,709,694,471,382,445,1,0.204,80,LIGHT_GRIP,7
12940,624,0.61,676,656,693,678,693,406,335,446,0,0.053,80,LIGHT_GRIP,7
12950,630,0.616,658,686,676,662,690,427,365,384,1,0.171,80,LIGHT_GRIP,7
12960,643,0.629,709,658,651,705,679,321,380,399,1,0.181,80,LIGHT_GRIP,7
12970,615,0.601,694,714,660,719,669,398,490,400,0,0.08,80,LIGHT_GRIP,7
12980,611,0.597,711,691,718,707,654,404,454,327,0,0.096,80,LIGHT_GRIP,7
12990,648,0.633,670,650,707,704,675,452,376,460,1,0.142,80,LIGHT_GRIP,7
13000,668,0.653,655,672,679,703,660,458,433,310,2,0.303,80,LIGHT_GRIP,7
13010,611,0.597,715,702,685,666,677,449,401,306,0,0.148,80,LIGHT_GRIP,7
13020,610,0.596,673,716,679,719,715,360,377,340,0,0.182,80,LIGHT_GRIP,7
13030,643,0.629,662,661,658,697,698,352,483,339,1,0.226,80,LIGHT_GRIP,7
13040,697,0.681,682,672,703,702,698,377,379,476,3,0.517,80,LIGHT_GRIP,7
13050,659,0.644,714,681,670,667,709,421,440,451,2,0.307,80,LIGHT_GRIP,7
13060,682,0.667,674,699,663,655,679,329,465,357,3,0.473,80,LIGHT_GRIP,7
13070,693,0.677,706,685,713,665,663,330,365,411,3,0.476,80,LIGHT_GRIP,7
13080,654,0.639,689,674,674,652,718,401,417,325,2,0.394,80,LIGHT_GRIP,7
13090,637,0.623,717,656,679,668,684,460,460,377,1,0.196,80,LIGHT_GRIP,7
13100,656,0.641,677,687,665,670,655,468,426,314,2,0.266,80,LIGHT_GRIP,7
13110,642,0.628,696,663,715,678,653,453,414,439,1,0.13,80,LIGHT_GRIP,7
13120,634,0.62,659,692,670,664,684,411,425,384,1,0.315,80,LIGHT_GRIP,7
13130,659,0.644,693,654,667,670,700,468,323,451,2,0.365,80,LIGHT_GRIP,7
13140,696,0.68,687,693,706,708,683,374,394,322,3,0.474,80,LIGHT_GRIP,7
13150,642,0.628,689,696,690,696,669,408,492,367,1,0.308,80,LIGHT_GRIP,7
13160,635,0.621,694,651,677,675,672,463,390,433,1,0.157,80,LIGHT_GRIP,7
13170,637,0.623,684,702,687,708,692,402,413,303,1,0.288,80,LIGHT_GRIP,7
13180,699,0.683,694,674,660,678,683,441,419,451,3,0.438,80,LIGHT_GRIP,7
13190,625,0.611,692,685,688,710,665,421,358,395,1,0.189,80,LIGHT_GRIP,7
13200,655,0.64,657,676,676,695,690,324,385,445,2,0.36,80,LIGHT_GRIP,7
13210,650,0.635,688,659,703,678,690,436,490,464,2,0.345,80,LIGHT_GRIP,7
13220,672,0.657,688,689,703,652,704,410,460,395,2,0.4,80,LIGHT_GRIP,7
13230,633,0.619,699,696,695,705,706,382,350,353,1,0.207,80,LIGHT_GRIP,7
13240,680,0.665,677,668,676,697,668,478,306,456,3,0.443,80,LIGHT_GRIP,7
13250,668,0.653,707,657,691,691,662,453,317,341,2,0.245,80,LIGHT_GRIP,7
13260,683,0.668,665,652,694,671,672,358,489,412,3,0.403,80,LIGHT_GRIP,7
13270,653,0.638,706,672,709,704,712,483,354,324,2,0.351,80,LIGHT_GRIP,7
13280,662,0.647,694,688,714,718,705,308,497,455,2,0.285,80,LIGHT_GRIP,7
13290,627,0.613,689,664,655,676,687,495,384,363,1,0.285,80,LIGHT_GRIP,7
13300,698,0.682,652,711,661,679,687,384,359,337,3,0.531,80,LIGHT_GRIP,7
13310,617,0.603,701,678,709,670,666,445,484,418,0,0.096,80,LIGHT_GRIP,7
13320,637,0.623,661,650,707,652,712,448,322,436,1,0.179,80,LIGHT_GRIP,7
13330,654,0.639,668,711,688,676,695,333,332,391,2,0.354,80,LIGHT_GRIP,7
13340,649,0.634,669,689,707,680,687,472,340,436,1,0.225,80,LIGHT_GRIP,7
13350,662,0.647,671,665,681,715,663,337,397,435,2,0.285,80,LIGHT_GRIP,7
13360,655,0.64,695,692,695,697,719,383,330,460,2,0.316,80,LIGHT_GRIP,7
13370,607,0.593,651,666,701,694,686,469,343,416,0,0.179,80,LIGHT_GRIP,7
13380,693,0.677,655,717,700,684,707,484,433,312,3,0.5,80,LIGHT_GRIP,7
13390,691,0.675,679,651,707,685,694,436,425,492,3,0.542,80,LIGHT_GRIP,7
13400,678,0.663,681,692,703,696,663,475,354,456,3,0.538,80,LIGHT_GRIP,7
13410,618,0.604,658,686,701,706,677,335,415,363,0,0.187,80,LIGHT_GRIP,7
13420,634,0.62,717,688,657,664,656,316,385,417,1,0.162,80,LIGHT_GRIP,7
13430,681,0.666,705,695,696,665,718,301,427,391,3,0.499,80,LIGHT_GRIP,7
13440,653,0.638,676,680,690,685,696,342,364,349,2,0.419,80,LIGHT_GRIP,7
13450,671,0.656,706,665,677,671,690,375,446,388,2,0.439,80,LIGHT_GRIP,7
13460,668,0.653,683,688,656,701,709,351,323,325,2,0.386,80,LIGHT_GRIP,7
13470,689,0.674,659,666,651,676,697,417,308,385,3,0.38,80,LIGHT_GRIP,7
13480,672,0.657,676,692,656,712,693,466,339,434,2,0.36,80,LIGHT_GRIP,7
13490,658,0.643,662,711,657,694,667,359,359,405,2,0.266,80,LIGHT_GRIP,7
13500,690,0.674,663,697,705,661,704,455,409,303,3,0.397,80,LIGHT_GRIP,7
13510,649,0.634,652,650,666,711,697,361,368,446,1,0.245,80,LIGHT_GRIP,7
13520,633,0.619,698,696,699,675,705,377,313,324,1,0.159,80,LIGHT_GRIP,7
13530,678,0.663,681,714,710,669,659,422,333,488,3,0.434,80,LIGHT_GRIP,7
13540,639,0.625,714,682,717,658,665,432,397,423,1,0.149,80,LIGHT_GRIP,7
13550,688,0.673,706,700,662,673,660,351,316,464,3,0.439,80,LIGHT_GRIP,7
13560,690,0.674,657,705,719,693,709,402,411,468,3,0.463,80,LIGHT_GRIP,7
13570,685,0.67,691,678,714,666,679,325,480,424,3,0.51,80,LIGHT_GRIP,7
13580,652,0.637,666,695,702,713,694,476,446,423,2,0.366,80,LIGHT_GRIP,7
13590,664,0.649,686,719,675,651,708,417,432,336,2,0.24,80,LIGHT_GRIP,7
13600,698,0.682,697,655,664,664,710,315,319,376,3,0.449,80,LIGHT_GRIP,7
13610,645,0.63,683,713,678,652,658,452,341,473,1,0.166,80,LIGHT_GRIP,7
13620,658,0.643,670,671,678,712,710,363,368,467,2,0.266,80,LIGHT_GRIP,7
13630,664,0.649,711,703,709,695,654,412,449,480,2,0.407,80,LIGHT_GRIP,7
13640,610,0.596,659,688,680,661,687,366,493,351,0,0.129,80,LIGHT_GRIP,7
13650,624,0.61,684,684,671,686,704,395,416,499,0,0.144,80,LIGHT_GRIP,7
13660,697,0.681,653,667,700,717,669,421,436,379,3,0.491,80,LIGHT_GRIP,7
13670,624,0.61,717,690,708,694,690,337,416,318,0,0.046,80,LIGHT_GRIP,7
13680,620,0.606,664,652,686,695,665,441,308,306,0,0.178,80,LIGHT_GRIP,7
13690,684,0.669,664,701,683,650,718,447,379,306,3,0.495,80,LIGHT_GRIP,7
13700,601,0.587,696,663,680,699,710,340,313,432,0,0.021,80,LIGHT_GRIP,7
13710,604,0.59,713,678,654,685,668,491,321,461,0,0.092,80,LIGHT_GRIP,7
13720,675,0.66,705,666,667,694,705,379,349,357,3,0.505,80,LIGHT_GRIP,7
13730,680,0.665,656,659,718,652,693,497,441,431,3,0.376,80,LIGHT_GRIP,7
13740,617,0.603,701,687,669,693,700,318,419,367,0,0.047,80,LIGHT_GRIP,7
13750,612,0.598,711,710,679,679,700,387,475,332,0,0.061,80,LIGHT_GRIP,7
13760,673,0.658,668,706,668,690,691,479,415,303,2,0.362,80,LIGHT_GRIP,7
13770,604,0.59,690,710,704,662,663,487,499,324,0,0.178,80,LIGHT_GRIP,7
13780,681,0.666,693,659,699,693,663,314,315,301,3,0.479,80,LIGHT_GRIP,7
13790,681,0.666,680,669,698,684,672,405,396,414,3,0.411,80,LIGHT_GRIP,7
13800,683,0.668,704,716,657,689,708,427,331,392,3,0.398,80,LIGHT_GRIP,7
13810,684,0.669,655,685,681,694,691,352,409,308,3,0.422,80,LIGHT_GRIP,7
13820,674,0.659,698,651,716,660,699,462,421,442,2,0.436,80,LIGHT_GRIP,7
13830,630,0.616,711,677,674,674,650,486,496,341,1,0.231,80,LIGHT_GRIP,7
13840,699,0.683,715,667,654,669,715,426,374,361,3,0.436,80,LIGHT_GRIP,7
13850,631,0.617,707,699,687,704,677,373,380,321,1,0.202,80,LIGHT_GRIP,7
13860,680,0.665,685,701,685,677,707,463,369,436,3,0.472,80,LIGHT_GRIP,7
13870,675,0.66,710,689,705,653,680,454,485,452,3,0.496,80,LIGHT_GRIP,7
13880,604,0.59,657,658,664,656,664,464,382,338,0,0.113,80,LIGHT_GRIP,7
13890,682,0.667,706,668,712,680,659,406,386,366,3,0.495,80,LIGHT_GRIP,7
13900,617,0.603,674,669,707,699,659,448,328,395,0,0.178,80,LIGHT_GRIP,7
13910,612,0.598,696,672,699,653,716,384,352,429,0,0.168,80,LIGHT_GRIP,7
13920,678,0.663,706,719,656,668,693,362,364,338,3,0.363,80,LIGHT_GRIP,7
13930,625,0.611,693,661,671,663,679,471,465,486,1,0.297,80,LIGHT_GRIP,7
13940,662,0.647,710,683,688,690,686,364,417,378,2,0.274,80,LIGHT_GRIP,7
13950,696,0.68,667,694,682,654,685,450,467,304,3,0.434,80,LIGHT_GRIP,7
13960,616,0.602,671,664,664,674,702,448,401,493,0,0.106,80,LIGHT_GRIP,7
13970,631,0.617,670,717,693,715,663,314,447,333,1,0.202,80,LIGHT_GRIP,7
13980,608,0.594,679,712,684,662,695,483,308,335,0,0.094,80,LIGHT_GRIP,7
13990,602,0.588,668,677,672,656,663,345,442,494,0,0.107,80,LIGHT_GRIP,7
14000,787,0.769,727,788,781,770,782,567,643,505,7,0.911,120,MEDIUM_GRIP,8
14010,730,0.714,725,798,748,786,794,630,573,613,5,0.731,120,MEDIUM_GRIP,8
14020,779,0.761,729,752,786,788,731,543,512,556,7,0.946,120,MEDIUM_GRIP,8
14030,795,0.777,740,795,770,740,779,520,606,625,7,0.968,120,MEDIUM_GRIP,8
14040,772,0.755,784,795,777,797,725,564,585,533,6,0.778,120,MEDIUM_GRIP,8
14050,702,0.686,761,781,725,725,782,647,648,501,4,0.531,120,MEDIUM_GRIP,8
14060,789,0.771,775,729,789,742,749,627,577,554,7,0.974,120,MEDIUM_GRIP,8
14070,733,0.717,763,741,750,726,740,515,519,542,5,0.674,120,MEDIUM_GRIP,8
14080,718,0.702,767,798,788,730,798,544,586,514,4,0.66,120,MEDIUM_GRIP,8
14090,766,0.749,793,759,733,782,770,611,514,564,6,0.864,120,MEDIUM_GRIP,8
14100,775,0.758,729,761,730,735,792,577,646,589,7,0.974,120,MEDIUM_GRIP,8
14110,707,0.691,767,749,777,774,792,621,607,547,4,0.493,120,MEDIUM_GRIP,8
14120,707,0.691,720,789,766,794,724,523,517,583,4,0.604,120,MEDIUM_GRIP,8
14130,704,0.688,749,720,765,788,750,590,592,626,4,0.662,120,MEDIUM_GRIP,8
14140,753,0.736,772,731,739,753,772,608,612,516,6,0.73,120,MEDIUM_GRIP,8
14150,749,0.732,759,722,736,780,769,621,589,586,5,0.783,120,MEDIUM_GRIP,8
14160,771,0.754,774,777,764,791,738,601,528,610,6,0.799,120,MEDIUM_GRIP,8
14170,790,0.772,768,784,748,778,764,550,600,627,7,1.015,120,MEDIUM_GRIP,8
14180,781,0.763,725,786,781,724,728,527,537,542,7,1.033,120,MEDIUM_GRIP,8
14190,790,0.772,781,765,789,757,768,538,570,626,7,1.03,120,MEDIUM_GRIP,8
14200,700,0.684,751,727,788,749,727,612,518,558,4,0.568,120,MEDIUM_GRIP,8
14210,778,0.761,755,774,763,746,796,577,600,529,7,0.947,120,MEDIUM_GRIP,8
14220,712,0.696,735,763,790,746,764,618,534,506,4,0.632,120,MEDIUM_GRIP,8
14230,750,0.733,765,739,757,780,751,557,647,581,6,0.729,120,MEDIUM_GRIP,8
14240,751,0.734,741,772,785,762,742,563,636,612,6,0.782,120,MEDIUM_GRIP,8
14250,753,0.736,784,721,723,797,751,599,629,603,6,0.743,120,MEDIUM_GRIP,8
14260,763,0.746,733,739,768,727,782,648,586,507,6,0.822,120,MEDIUM_GRIP,8
14270,715,0.699,759,746,737,754,771,642,552,590,4,0.669,120,MEDIUM_GRIP,8
14280,765,0.748,750,780,783,753,774,558,502,516,6,0.887,120,MEDIUM_GRIP,8
14290,745,0.728,757,754,720,748,723,560,596,644,5,0.701,120,MEDIUM_GRIP,8
14300,789,0.771,727,753,778,737,778,515,509,603,7,0.942,120,MEDIUM_GRIP,8
14310,715,0.699,731,794,770,720,746,511,529,508,4,0.515,120,MEDIUM_GRIP,8
14320,753,0.736,756,784,761,768,723,578,590,578,6,0.876,120,MEDIUM_GRIP,8
14330,771,0.754,777,723,741,722,798,598,537,616,6,0.748,120,MEDIUM_GRIP,8
14340,707,0.691,769,799,757,729,761,536,639,548,4,0.518,120,MEDIUM_GRIP,8
14350,734,0.717,748,731,763,785,721,516,637,517,5,0.604,120,MEDIUM_GRIP,8
14360,757,0.74,772,720,780,750,750,565,646,552,6,0.754,120,MEDIUM_GRIP,8
14370,794,0.776,741,742,734,745,722,586,647,624,7,0.949,120,MEDIUM_GRIP,8
14380,738,0.721,791,737,760,789,746,642,536,504,5,0.698,120,MEDIUM_GRIP,8
14390,772,0.755,726,760,729,781,745,567,523,577,6,0.74,120,MEDIUM_GRIP,8
14400,716,0.7,743,746,726,792,731,584,502,578,4,0.633,120,MEDIUM_GRIP,8
14410,732,0.716,765,778,771,725,721,528,618,596,5,0.718,120,MEDIUM_GRIP,8
14420,767,0.75,748,781,779,760,784,578,562,647,6,0.9,120,MEDIUM_GRIP,8
14430,763,0.746,724,753,758,786,781,587,630,608,6,0.803,120,MEDIUM_GRIP,8
14440,766,0.749,798,769,748,793,751,586,538,636,6,0.8,120,MEDIUM_GRIP,8
14450,713,0.697,787,783,739,747,733,576,615,527,4,0.544,120,MEDIUM_GRIP,8
14460,731,0.715,728,747,736,796,774,509,579,633,5,0.772,120,MEDIUM_GRIP,8
14470,766,0.749,760,798,779,796,761,615,608,570,6,0.877,120,MEDIUM_GRIP,8
14480,712,0.696,734,755,734,794,775,594,631,551,4,0.53,120,MEDIUM_GRIP,8
14490,793,0.775,764,748,772,748,742,520,611,637,7,0.91,120,MEDIUM_GRIP,8
14500,729,0.713,770,752,737,797,741,563,520,628,5,0.8,120,MEDIUM_GRIP,8
14510,714,0.698,755,766,773,751,777,553,522,501,4,0.666,120,MEDIUM_GRIP,8
14520,728,0.712,786,790,755,748,756,612,544,515,5,0.643,120,MEDIUM_GRIP,8
14530,733,0.717,769,784,781,762,775,514,548,509,5,0.617,120,MEDIUM_GRIP,8
14540,707,0.691,764,753,770,723,758,523,554,525,4,0.57,120,MEDIUM_GRIP,8
14550,770,0.753,793,777,731,720,769,632,582,505,6,0.893,120,MEDIUM_GRIP,8
14560,754,0.737,758,728,764,733,774,636,514,536,6,0.892,120,MEDIUM_GRIP,8
14570,783,0.765,791,740,776,738,777,594,617,505,7,1.002,120,MEDIUM_GRIP,8
14580,792,0.774,761,722,720,774,734,546,584,557,7,0.944,120,MEDIUM_GRIP,8
14590,780,0.762,758,722,749,754,776,551,617,513,7,0.939,120,MEDIUM_GRIP,8
14600,757,0.74,749,726,758,788,754,626,551,641,6,0.729,120,MEDIUM_GRIP,8
14610,735,0.718,743,759,748,772,741,571,514,612,5,0.762,120,MEDIUM_GRIP,8
14620,763,0.746,723,794,737,761,749,642,569,515,6,0.746,120,MEDIUM_GRIP,8
14630,772,0.755,753,746,732,746,792,585,530,502,6,0.738,120,MEDIUM_GRIP,8
14640,798,0.78,725,751,761,781,751,598,585,563,7,0.901,120,MEDIUM_GRIP,8
14650,762,0.745,750,759,752,782,744,594,545,637,6,0.872,120,MEDIUM_GRIP,8
14660,731,0.715,755,747,735,735,737,635,574,500,5,0.604,120,MEDIUM_GRIP,8
14670,775,0.758,757,764,777,720,751,635,617,539,7,0.927,120,MEDIUM_GRIP,8
14680,787,0.769,793,793,755,776,793,582,578,629,7,0.992,120,MEDIUM_GRIP,8
14690,749,0.732,748,729,746,734,779,648,559,557,5,0.759,120,MEDIUM_GRIP,8
14700,744,0.727,745,770,755,771,770,630,513,500,5,0.798,120,MEDIUM_GRIP,8
14710,749,0.732,733,778,722,759,785,594,508,593,5,0.654,120,MEDIUM_GRIP,8
14720,792,0.774,744,763,744,728,781,556,536,515,7,0.897,120,MEDIUM_GRIP,8
14730,723,0.707,745,739,728,748,750,518,647,526,4,0.498,120,MEDIUM_GRIP,8
14740,743,0.726,754,790,741,793,734,593,597,640,5,0.79,120,MEDIUM_GRIP,8
14750,781,0.763,775,742,753,736,747,513,611,574,7,0.881,120,MEDIUM_GRIP,8
14760,796,0.778,774,785,756,787,795,525,566,583,7,0.954,120,MEDIUM_GRIP,8
14770,717,0.701,772,782,772,746,750,605,628,505,4,0.506,120,MEDIUM_GRIP,8
14780,783,0.765,782,772,737,740,738,503,576,615,7,0.969,120,MEDIUM_GRIP,8
14790,755,0.738,796,782,746,779,768,564,582,500,6,0.728,120,MEDIUM_GRIP,8
14800,720,0.704,734,769,767,751,768,607,544,531,4,0.627,120,MEDIUM_GRIP,8
14810,764,0.747,790,792,784,799,737,553,626,633,6,0.909,120,MEDIUM_GRIP,8
14820,767,0.75,742,762,770,791,744,579,644,517,6,0.73,120,MEDIUM_GRIP,8
14830,714,0.698,788,799,734,761,753,547,635,637,4,0.519,120,MEDIUM_GRIP,8
14840,747,0.73,745,742,781,732,728,519,591,607,5,0.733,120,MEDIUM_GRIP,8
14850,723,0.707,752,739,779,767,783,529,607,572,4,0.644,120,MEDIUM_GRIP,8
14860,716,0.7,733,738,790,778,786,596,543,610,4,0.494,120,MEDIUM_GRIP,8
14870,701,0.685,787,736,759,765,723,562,528,518,4,0.512,120,MEDIUM_GRIP,8
14880,799,0.781,754,789,742,765,763,507,565,599,7,0.858,120,MEDIUM_GRIP,8
14890,751,0.734,757,755,774,732,756,546,589,521,6,0.728,120,MEDIUM_GRIP,8
14900,757,0.74,749,737,737,793,758,593,570,506,6,0.847,120,MEDIUM_GRIP,8
14910,745,0.728,737,732,744,727,793,644,601,578,5,0.734,120,MEDIUM_GRIP,8
14920,747,0.73,782,759,734,725,782,635,627,611,5,0.706,120,MEDIUM_GRIP,8
14930,744,0.727,771,798,732,743,759,513,569,561,5,0.752,120,MEDIUM_GRIP,8
14940,760,0.743,720,785,751,732,752,531,555,590,6,0.736,120,MEDIUM_GRIP,8
14950,722,0.706,748,740,749,739,735,566,600,557,4,0.605,120,MEDIUM_GRIP,8
14960,724,0.708,742,778,720,734,771,503,634,545,4,0.624,120,MEDIUM_GRIP,8
14970,786,0.768,752,752,723,784,753,584,587,554,7,0.999,120,MEDIUM_GRIP,8
14980,720,0.704,779,732,722,787,723,506,525,523,4,0.613,120,MEDIUM_GRIP,8
14990,712,0.696,763,758,738,770,738,575,551,619,4,0.482,120,MEDIUM_GRIP,8
15000,775,0.758,740,794,767,781,777,517,607,547,7,0.953,120,MEDIUM_GRIP,8
15010,786,0.768,753,780,772,744,781,631,640,548,7,0.905,120,MEDIUM_GRIP,8
15020,746,0.729,727,774,737,754,751,506,512,625,5,0.676,120,MEDIUM_GRIP,8
15030,768,0.751,761,750,793,745,795,531,590,624,6,0.892,120,MEDIUM_GRIP,8
15040,751,0.734,739,759,778,796,733,603,616,547,6,0.746,120,MEDIUM_GRIP,8
15050,715,0.699,754,772,753,722,787,632,637,551,4,0.621,120,MEDIUM_GRIP,8
15060,730,0.714,785,795,788,756,746,586,532,567,5,0.78,120,MEDIUM_GRIP,8
15070,784,0.766,763,768,772,793,768,612,613,594,7,0.917,120,MEDIUM_GRIP,8
15080,703,0.687,770,730,736,785,789,568,583,584,4,0.535,120,MEDIUM_GRIP,8
15090,771,0.754,739,746,727,780,747,502,506,503,6,0.727,120,MEDIUM_GRIP,8
15100,710,0.694,734,783,732,726,725,563,529,521,4,0.543,120,MEDIUM_GRIP,8
15110,783,0.765,758,786,724,784,734,589,620,605,7,1.014,120,MEDIUM_GRIP,8
15120,768,0.751,796,762,720,741,781,517,547,636,6,0.773,120,MEDIUM_GRIP,8
15130,708,0.692,742,764,721,733,757,539,581,515,4,0.651,120,MEDIUM_GRIP,8
15140,792,0.774,794,725,722,733,785,594,585,613,7,0.94,120,MEDIUM_GRIP,8
15150,787,0.769,720,763,734,756,746,526,511,566,7,0.99,120,MEDIUM_GRIP,8
15160,786,0.768,785,726,753,751,758,595,630,542,7,0.919,120,MEDIUM_GRIP,8
15170,702,0.686,793,782,759,737,786,602,637,545,4,0.582,120,MEDIUM_GRIP,8
15180,774,0.757,779,745,746,757,741,525,572,614,6,0.906,120,MEDIUM_GRIP,8
15190,717,0.701,762,731,722,726,725,581,544,626,4,0.564,120,MEDIUM_GRIP,8
15200,738,0.721,770,728,742,731,781,603,572,576,5,0.753,120,MEDIUM_GRIP,8
15210,780,0.762,726,736,769,743,721,591,648,616,7,0.962,120,MEDIUM_GRIP,8
15220,745,0.728,764,728,725,770,754,581,646,524,5,0.668,120,MEDIUM_GRIP,8
15230,716,0.7,755,740,737,779,737,500,641,635,4,0.566,120,MEDIUM_GRIP,8
15240,778,0.761,779,753,755,781,720,584,541,500,7,1.031,120,MEDIUM_GRIP,8
15250,753,0.736,766,758,749,726,741,620,544,573,6,0.815,120,MEDIUM_GRIP,8
15260,790,0.772,729,733,765,794,725,520,646,602,7,0.906,120,MEDIUM_GRIP,8
15270,798,0.78,781,772,743,775,781,521,567,509,7,0.886,120,MEDIUM_GRIP,8
15280,796,0.778,757,781,747,729,764,564,566,636,7,0.96,120,MEDIUM_GRIP,8
15290,709,0.693,731,777,740,740,784,630,568,588,4,0.486,120,MEDIUM_GRIP,8
15300,748,0.731,791,736,792,751,789,612,520,634,5,0.628,120,MEDIUM_GRIP,8
15310,726,0.71,727,792,747,798,785,546,585,509,5,0.675,120,MEDIUM_GRIP,8
15320,732,0.716,726,722,733,763,765,560,512,515,5,0.772,120,MEDIUM_GRIP,8
15330,704,0.688,757,769,757,775,782,619,547,604,4,0.613,120,MEDIUM_GRIP,8
15340,776,0.759,763,774,774,720,727,626,631,584,7,1.018,120,MEDIUM_GRIP,8
15350,752,0.735,777,756,768,786,738,628,528,586,6,0.843,120,MEDIUM_GRIP,8
15360,751,0.734,760,742,724,790,776,633,521,576,6,0.782,120,MEDIUM_GRIP,8
15370,771,0.754,783,756,750,756,764,635,592,504,6,0.873,120,MEDIUM_GRIP,8
15380,780,0.762,728,721,782,770,750,506,502,550,7,1.037,120,MEDIUM_GRIP,8
15390,772,0.755,729,780,769,766,720,537,578,588,6,0.813,120,MEDIUM_GRIP,8
15400,764,0.747,781,775,786,736,727,559,539,588,6,0.774,120,MEDIUM_GRIP,8
15410,711,0.695,773,730,779,787,797,545,537,516,4,0.632,120,MEDIUM_GRIP,8
15420,735,0.718,793,726,735,733,799,524,604,503,5,0.776,120,MEDIUM_GRIP,8
15430,755,0.738,725,720,758,720,782,556,564,564,6,0.875,120,MEDIUM_GRIP,8
15440,729,0.713,752,767,741,773,723,639,573,618,5,0.748,120,MEDIUM_GRIP,8
15450,792,0.774,795,784,784,729,737,546,565,548,7,0.864,120,MEDIUM_GRIP,8
15460,785,0.767,745,728,740,782,725,513,570,574,7,1.029,120,MEDIUM_GRIP,8
15470,750,0.733,721,734,754,755,758,503,505,609,6,0.722,120,MEDIUM_GRIP,8
15480,773,0.756,786,734,736,737,738,575,587,590,6,0.838,120,MEDIUM_GRIP,8
15490,714,0.698,766,763,746,783,760,595,567,504,4,0.624,120,MEDIUM_GRIP,8
15500,707,0.691,741,726,741,765,749,625,600,643,4,0.523,120,MEDIUM_GRIP,8
15510,766,0.749,742,780,793,724,742,581,524,507,6,0.914,120,MEDIUM_GRIP,8
15520,701,0.685,741,791,791,787,783,593,518,627,4,0.62,120,MEDIUM_GRIP,8
15530,752,0.735,771,766,773,763,726,614,591,500,6,0.758,120,MEDIUM_GRIP,8
15540,797,0.779,758,738,750,796,743,568,558,613,7,1.002,120,MEDIUM_GRIP,8
15550,731,0.715,778,760,731,792,730,596,646,556,5,0.665,120,MEDIUM_GRIP,8
15560,770,0.753,750,771,721,757,751,637,604,635,6,0.877,120,MEDIUM_GRIP,8
15570,774,0.757,739,739,728,791,734,596,604,562,6,0.888,120,MEDIUM_GRIP,8
15580,720,0.704,724,754,787,767,799,615,596,520,4,0.66,120,MEDIUM_GRIP,8
15590,738,0.721,753,734,725,785,775,548,591,628,5,0.765,120,MEDIUM_GRIP,8
15600,799,0.781,739,767,791,784,770,548,573,511,7,0.96,120,MEDIUM_GRIP,8
15610,780,0.762,788,733,753,767,780,534,618,564,7,0.901,120,MEDIUM_GRIP,8
15620,735,0.718,798,738,761,788,738,606,538,568,5,0.625,120,MEDIUM_GRIP,8
15630,782,0.764,766,795,755,782,795,581,550,542,7,1.011,120,MEDIUM_GRIP,8
15640,796,0.778,768,737,780,776,724,523,558,537,7,1.006,120,MEDIUM_GRIP,8
15650,736,0.719,730,743,790,740,739,509,642,633,5,0.653,120,MEDIUM_GRIP,8
15660,775,0.758,723,742,732,750,735,540,500,610,7,1.04,120,MEDIUM_GRIP,8
15670,755,0.738,769,739,785,755,798,649,607,595,6,0.832,120,MEDIUM_GRIP,8
15680,735,0.718,734,781,722,724,775,585,617,525,5,0.644,120,MEDIUM_GRIP,8
15690,782,0.764,726,755,795,744,778,560,528,594,7,0.906,120,MEDIUM_GRIP,8
15700,718,0.702,723,784,760,734,773,642,521,645,4,0.524,120,MEDIUM_GRIP,8
15710,735,0.718,739,735,786,749,774,565,525,629,5,0.761,120,MEDIUM_GRIP,8
15720,783,0.765,781,753,775,774,739,549,583,552,7,1.004,120,MEDIUM_GRIP,8
15730,742,0.725,781,795,788,782,721,515,593,544,5,0.616,120,MEDIUM_GRIP,8
15740,741,0.724,743,749,756,772,782,638,577,616,5,0.614,120,MEDIUM_GRIP,8
15750,784,0.766,774,774,723,773,780,610,577,582,7,1.019,120,MEDIUM_GRIP,8
15760,799,0.781,737,763,750,740,766,529,554,604,7,0.878,120,MEDIUM_GRIP,8
15770,740,0.723,764,793,799,749,796,584,603,578,5,0.61,120,MEDIUM_GRIP,8
15780,744,0.727,774,778,724,751,725,593,525,536,5,0.76,120,MEDIUM_GRIP,8
15790,768,0.751,744,732,739,791,779,648,614,626,6,0.852,120,MEDIUM_GRIP,8
15800,778,0.761,745,773,761,730,756,624,510,526,7,0.957,120,MEDIUM_GRIP,8
15810,733,0.717,757,780,772,784,722,641,551,529,5,0.745,120,MEDIUM_GRIP,8
15820,768,0.751,734,757,797,733,776,507,571,646,6,0.821,120,MEDIUM_GRIP,8
15830,728,0.712,760,794,764,732,746,518,552,636,5,0.676,120,MEDIUM_GRIP,8
15840,795,0.777,771,773,722,788,727,513,619,630,7,1.03,120,MEDIUM_GRIP,8
15850,742,0.725,748,791,770,761,750,645,581,556,5,0.655,120,MEDIUM_GRIP,8
15860,747,0.73,799,779,752,722,723,599,503,541,5,0.677,120,MEDIUM_GRIP,8
15870,750,0.733,736,736,739,733,741,526,542,630,6,0.727,120,MEDIUM_GRIP,8
15880,707,0.691,729,748,759,784,740,508,647,535,4,0.542,120,MEDIUM_GRIP,8
15890,772,0.755,741,720,788,792,756,571,606,595,6,0.733,120,MEDIUM_GRIP,8
15900,799,0.781,762,756,793,744,740,572,541,501,7,0.895,120,MEDIUM_GRIP,8
15910,795,0.777,780,733,796,740,743,563,556,618,7,0.897,120,MEDIUM_GRIP,8
15920,732,0.716,771,737,754,731,770,588,509,551,5,0.68,120,MEDIUM_GRIP,8
15930,766,0.749,758,727,748,741,789,542,528,605,6,0.817,120,MEDIUM_GRIP,8
15940,730,0.714,772,753,757,776,723,629,511,534,5,0.659,120,MEDIUM_GRIP,8
15950,771,0.754,740,780,754,767,734,570,642,633,6,0.824,120,MEDIUM_GRIP,8
15960,767,0.75,741,751,741,746,734,623,543,614,6,0.766,120,MEDIUM_GRIP,8
15970,708,0.692,753,792,734,781,764,571,557,614,4,0.627,120,MEDIUM_GRIP,8
15980,715,0.699,794,727,752,793,737,542,549,502,4,0.639,120,MEDIUM_GRIP,8
15990,758,0.741,747,765,783,789,766,641,634,605,6,0.903,120,MEDIUM_GRIP,8
16000,850,0.831,828,814,875,824,860,690,718,653,10,1.204,160,STRONG_GRIP,9
16010,856,0.837,830,802,866,849,816,837,715,737,10,1.244,160,STRONG_GRIP,9
16020,898,0.878,831,818,865,859,865,664,734,812,11,1.337,160,STRONG_GRIP,9
16030,826,0.807,806,805,832,857,848,794,759,691,9,1.183,160,STRONG_GRIP,9
16040,839,0.82,845,870,869,867,800,728,744,760,9,1.246,160,STRONG_GRIP,9
16050,834,0.815,868,804,816,852,851,791,771,678,9,1.123,160,STRONG_GRIP,9
16060,800,0.782,828,835,850,836,868,702,773,829,8,1.069,160,STRONG_GRIP,9
16070,811,0.793,851,800,806,816,842,720,666,836,8,1.083,160,STRONG_GRIP,9
16080,821,0.803,837,853,849,868,829,800,769,696,8,1.086,160,STRONG_GRIP,9
16090,822,0.804,867,820,820,800,814,666,700,840,8,1.157,160,STRONG_GRIP,9
16100,882,0.862,849,833,805,848,805,766,767,846,11,1.418,160,STRONG_GRIP,9
16110,876,0.856,850,800,812,842,826,848,765,780,11,1.369,160,STRONG_GRIP,9
16120,896,0.876,816,844,877,857,855,831,678,751,11,1.342,160,STRONG_GRIP,9
16130,826,0.807,844,830,835,860,836,844,685,768,9,1.238,160,STRONG_GRIP,9
16140,878,0.858,851,848,805,809,822,794,759,693,11,1.507,160,STRONG_GRIP,9
16150,843,0.824,857,849,851,869,867,840,835,800,9,1.269,160,STRONG_GRIP,9
16160,882,0.862,843,851,866,827,866,667,804,828,11,1.412,160,STRONG_GRIP,9
16170,873,0.853,848,814,872,867,814,828,697,721,10,1.256,160,STRONG_GRIP,9
16180,800,0.782,806,852,830,817,811,697,679,746,8,1.12,160,STRONG_GRIP,9
16190,806,0.788,802,862,805,814,870,820,740,730,8,1.003,160,STRONG_GRIP,9
16200,821,0.803,860,860,852,825,839,737,765,785,8,1.028,160,STRONG_GRIP,9
16210,842,0.823,820,802,830,826,826,722,834,746,9,1.114,160,STRONG_GRIP,9
16220,891,0.871,843,842,830,864,875,794,792,683,11,1.361,160,STRONG_GRIP,9
16230,803,0.785,871,878,827,872,801,666,707,776,8,1.028,160,STRONG_GRIP,9
16240,830,0.811,865,861,818,873,854,805,761,772,9,1.101,160,STRONG_GRIP,9
16250,849,0.83,864,802,878,851,809,670,686,664,9,1.134,160,STRONG_GRIP,9
16260,878,0.858,873,808,843,838,804,674,705,770,11,1.436,160,STRONG_GRIP,9
16270,871,0.851,851,875,808,809,809,711,739,709,10,1.275,160,STRONG_GRIP,9
16280,837,0.818,805,814,846,844,804,727,702,843,9,1.13,160,STRONG_GRIP,9
16290,843,0.824,851,845,818,846,851,673,794,738,9,1.256,160,STRONG_GRIP,9
16300,894,0.874,827,849,863,827,855,708,782,831,11,1.333,160,STRONG_GRIP,9
16310,871,0.851,856,846,875,824,843,664,754,700,10,1.306,160,STRONG_GRIP,9
16320,876,0.856,807,876,869,820,806,739,728,833,11,1.465,160,STRONG_GRIP,9
16330,822,0.804,851,878,852,815,836,795,797,695,8,0.987,160,STRONG_GRIP,9
16340,886,0.866,862,802,845,848,800,754,671,791,11,1.346,160,STRONG_GRIP,9
16350,884,0.864,844,805,864,820,803,780,762,679,11,1.504,160,STRONG_GRIP,9
16360,882,0.862,819,853,824,814,837,800,829,843,11,1.321,160,STRONG_GRIP,9
16370,878,0.858,851,834,873,813,813,748,682,829,11,1.507,160,STRONG_GRIP,9
16380,818,0.8,823,803,835,876,857,809,786,752,8,1.083,160,STRONG_GRIP,9
16390,866,0.847,819,873,861,857,821,761,844,724,10,1.324,160,STRONG_GRIP,9
16400,847,0.828,807,872,814,831,852,716,653,679,9,1.116,160,STRONG_GRIP,9
16410,820,0.802,840,818,847,862,819,841,686,680,8,1.133,160,STRONG_GRIP,9
16420,819,0.801,810,843,863,833,864,704,723,766,8,1.032,160,STRONG_GRIP,9
16430,837,0.818,808,870,816,851,817,840,682,653,9,1.166,160,STRONG_GRIP,9
16440,851,0.832,808,863,829,807,804,725,840,778,10,1.235,160,STRONG_GRIP,9
16450,881,0.861,837,841,845,852,825,710,772,716,11,1.436,160,STRONG_GRIP,9
16460,825,0.806,859,838,835,820,840,767,697,675,9,1.138,160,STRONG_GRIP,9
16470,835,0.816,823,820,817,814,878,783,820,808,9,1.263,160,STRONG_GRIP,9
16480,828,0.809,820,857,859,849,830,696,683,651,9,1.211,160,STRONG_GRIP,9
16490,893,0.873,871,851,806,875,818,739,741,792,11,1.379,160,STRONG_GRIP,9
16500,813,0.795,802,849,853,805,848,800,727,727,8,1.155,160,STRONG_GRIP,9
16510,890,0.87,859,844,860,855,801,754,822,817,11,1.515,160,STRONG_GRIP,9
16520,828,0.809,866,867,865,853,852,698,681,710,9,1.207,160,STRONG_GRIP,9
16530,862,0.843,834,850,870,844,876,762,714,663,10,1.305,160,STRONG_GRIP,9
16540,802,0.784,823,864,847,809,812,791,749,787,8,1.152,160,STRONG_GRIP,9
16550,898,0.878,854,862,870,841,865,728,722,696,11,1.341,160,STRONG_GRIP,9
16560,851,0.832,817,878,817,823,822,789,800,670,10,1.334,160,STRONG_GRIP,9
16570,889,0.869,871,833,801,868,830,717,847,796,11,1.497,160,STRONG_GRIP,9
16580,871,0.851,812,864,805,870,826,728,829,775,10,1.302,160,STRONG_GRIP,9
16590,886,0.866,847,878,867,843,816,687,787,703,11,1.332,160,STRONG_GRIP,9
16600,805,0.787,805,851,814,867,856,761,833,753,8,1.069,160,STRONG_GRIP,9
16610,857,0.838,863,825,857,830,865,741,755,662,10,1.312,160,STRONG_GRIP,9
16620,874,0.854,812,823,856,828,855,703,782,812,10,1.284,160,STRONG_GRIP,9
16630,876,0.856,868,843,877,837,861,671,722,817,11,1.357,160,STRONG_GRIP,9
16640,804,0.786,853,848,802,837,813,824,791,722,8,1.033,160,STRONG_GRIP,9
16650,843,0.824,869,864,824,815,814,780,844,686,9,1.151,160,STRONG_GRIP,9
16660,837,0.818,862,800,870,818,851,767,807,756,9,1.11,160,STRONG_GRIP,9
16670,812,0.794,826,808,840,847,811,787,655,811,8,1.002,160,STRONG_GRIP,9
16680,840,0.821,805,801,814,816,815,805,734,849,9,1.104,160,STRONG_GRIP,9
16690,809,0.791,872,827,823,818,867,833,844,691,8,0.982,160,STRONG_GRIP,9
16700,822,0.804,805,852,841,865,829,658,819,683,8,1.146,160,STRONG_GRIP,9
16710,816,0.798,828,849,875,848,872,838,695,695,8,1.028,160,STRONG_GRIP,9
16720,865,0.846,804,853,815,806,807,721,745,760,10,1.374,160,STRONG_GRIP,9
16730,853,0.834,875,814,849,855,808,657,759,796,10,1.239,160,STRONG_GRIP,9
16740,897,0.877,856,867,830,802,842,678,659,789,11,1.517,160,STRONG_GRIP,9
16750,893,0.873,831,872,846,862,825,780,672,723,11,1.44,160,STRONG_GRIP,9
16760,812,0.794,828,837,876,804,819,727,758,663,8,1.104,160,STRONG_GRIP,9
16770,812,0.794,823,878,864,833,850,652,777,768,8,0.96,160,STRONG_GRIP,9
16780,857,0.838,871,854,879,841,820,659,706,802,10,1.243,160,STRONG_GRIP,9
16790,885,0.865,860,846,853,845,867,653,843,820,11,1.324,160,STRONG_GRIP,9
16800,884,0.864,803,864,861,801,808,834,694,795,11,1.433,160,STRONG_GRIP,9
16810,841,0.822,840,874,857,841,834,815,716,690,9,1.21,160,STRONG_GRIP,9
16820,885,0.865,871,878,844,870,818,755,794,842,11,1.403,160,STRONG_GRIP,9
16830,876,0.856,855,840,841,805,868,747,722,817,11,1.382,160,STRONG_GRIP,9
16840,807,0.789,843,857,866,812,818,747,745,698,8,1.046,160,STRONG_GRIP,9
16850,881,0.861,877,829,865,876,858,702,701,730,11,1.324,160,STRONG_GRIP,9
16860,819,0.801,804,806,817,855,874,745,763,750,8,1.041,160,STRONG_GRIP,9
16870,849,0.83,801,867,876,823,847,822,768,835,9,1.129,160,STRONG_GRIP,9
16880,817,0.799,848,807,857,814,816,672,843,847,8,1.087,160,STRONG_GRIP,9
16890,836,0.817,848,863,833,817,863,755,723,751,9,1.179,160,STRONG_GRIP,9
16900,816,0.798,858,812,851,859,841,713,843,683,8,1.033,160,STRONG_GRIP,9
16910,870,0.85,863,832,811,875,818,786,723,794,10,1.296,160,STRONG_GRIP,9
16920,838,0.819,840,809,811,878,814,677,781,685,9,1.174,160,STRONG_GRIP,9
16930,897,0.877,846,838,837,843,850,746,773,675,11,1.363,160,STRONG_GRIP,9
16940,868,0.848,800,852,805,836,801,772,718,818,10,1.351,160,STRONG_GRIP,9
16950,846,0.827,812,875,868,865,858,717,708,766,9,1.234,160,STRONG_GRIP,9
16960,801,0.783,814,845,856,809,821,738,726,785,8,1.064,160,STRONG_GRIP,9
16970,821,0.803,844,839,821,829,861,722,822,684,8,1.106,160,STRONG_GRIP,9
16980,804,0.786,826,869,861,831,807,752,734,795,8,1.075,160,STRONG_GRIP,9
16990,825,0.806,852,843,831,827,838,809,726,667,9,1.247,160,STRONG_GRIP,9
17000,810,0.792,831,819,839,807,834,718,775,748,8,1.107,160,STRONG_GRIP,9
17010,820,0.802,823,816,817,811,815,653,811,741,8,1.065,160,STRONG_GRIP,9
17020,874,0.854,876,830,824,873,823,714,766,802,10,1.375,160,STRONG_GRIP,9
17030,881,0.861,805,865,866,871,847,719,727,716,11,1.476,160,STRONG_GRIP,9
17040,843,0.824,862,845,818,863,872,720,759,827,9,1.133,160,STRONG_GRIP,9
17050,806,0.788,808,803,848,875,805,731,670,792,8,1.102,160,STRONG_GRIP,9
17060,865,0.846,855,867,831,865,828,715,811,676,10,1.337,160,STRONG_GRIP,9
17070,838,0.819,843,835,818,844,820,800,804,747,9,1.268,160,STRONG_GRIP,9
17080,840,0.821,825,827,863,867,879,700,751,825,9,1.251,160,STRONG_GRIP,9
17090,872,0.852,838,818,863,818,875,711,790,674,10,1.281,160,STRONG_GRIP,9
17100,891,0.871,841,838,829,804,817,756,760,670,11,1.487,160,STRONG_GRIP,9
17110,849,0.83,805,849,879,865,800,834,679,835,9,1.216,160,STRONG_GRIP,9
17120,836,0.817,847,800,818,845,866,779,705,794,9,1.221,160,STRONG_GRIP,9
17130,896,0.876,878,821,826,854,831,709,758,805,11,1.327,160,STRONG_GRIP,9
17140,873,0.853,824,877,825,874,870,794,656,833,10,1.251,160,STRONG_GRIP,9
17150,837,0.818,874,857,815,850,826,700,724,793,9,1.188,160,STRONG_GRIP,9
17160,875,0.855,839,866,801,847,851,801,742,759,11,1.361,160,STRONG_GRIP,9
17170,881,0.861,877,801,864,819,833,690,818,672,11,1.502,160,STRONG_GRIP,9
17180,866,0.847,861,811,829,864,840,797,767,655,10,1.311,160,STRONG_GRIP,9
17190,803,0.785,809,850,837,800,807,751,730,732,8,0.964,160,STRONG_GRIP,9
17200,814,0.796,830,820,802,865,834,818,836,793,8,1.02,160,STRONG_GRIP,9
17210,858,0.839,849,811,811,832,848,670,709,701,10,1.207,160,STRONG_GRIP,9
17220,848,0.829,863,825,870,806,871,711,737,673,9,1.09,160,STRONG_GRIP,9
17230,875,0.855,846,807,853,808,802,831,670,744,11,1.452,160,STRONG_GRIP,9
17240,887,0.867,867,862,815,873,804,788,806,728,11,1.411,160,STRONG_GRIP,9
17250,814,0.796,833,859,861,801,879,668,698,727,8,1.154,160,STRONG_GRIP,9
17260,847,0.828,836,873,848,847,872,749,678,837,9,1.159,160,STRONG_GRIP,9
17270,847,0.828,822,826,806,848,853,758,717,819,9,1.184,160,STRONG_GRIP,9
17280,843,0.824,825,822,872,807,852,791,848,784,9,1.26,160,STRONG_GRIP,9
17290,877,0.857,816,843,845,857,827,791,658,764,11,1.383,160,STRONG_GRIP,9
17300,874,0.854,833,818,838,812,804,699,672,771,10,1.315,160,STRONG_GRIP,9
17310,828,0.809,871,825,878,856,800,805,762,711,9,1.279,160,STRONG_GRIP,9
17320,877,0.857,858,830,869,848,804,680,686,728,11,1.471,160,STRONG_GRIP,9
17330,868,0.848,810,842,869,822,839,712,779,736,10,1.396,160,STRONG_GRIP,9
17340,846,0.827,829,815,858,846,829,758,658,714,9,1.126,160,STRONG_GRIP,9
17350,863,0.844,807,851,817,857,848,681,697,694,10,1.244,160,STRONG_GRIP,9
17360,899,0.879,845,830,836,815,845,775,695,770,11,1.388,160,STRONG_GRIP,9
17370,860,0.841,845,850,861,834,841,694,767,845,10,1.227,160,STRONG_GRIP,9
17380,878,0.858,829,823,865,842,833,672,710,814,11,1.456,160,STRONG_GRIP,9
17390,870,0.85,806,841,837,851,843,841,790,677,10,1.243,160,STRONG_GRIP,9
17400,881,0.861,800,842,841,849,859,778,700,793,11,1.419,160,STRONG_GRIP,9
17410,814,0.796,832,852,816,805,830,846,689,807,8,1.112,160,STRONG_GRIP,9
17420,806,0.788,812,803,849,802,811,714,676,756,8,1.148,160,STRONG_GRIP,9
17430,816,0.798,871,831,850,816,833,684,801,831,8,1.019,160,STRONG_GRIP,9
17440,845,0.826,847,832,826,800,858,659,802,706,9,1.232,160,STRONG_GRIP,9
17450,814,0.796,827,812,813,865,833,750,674,761,8,1.153,160,STRONG_GRIP,9
17460,878,0.858,811,808,830,877,852,761,692,815,11,1.345,160,STRONG_GRIP,9
17470,871,0.851,847,866,865,815,815,680,767,835,10,1.252,160,STRONG_GRIP,9
17480,809,0.791,850,817,846,831,829,813,658,813,8,1.155,160,STRONG_GRIP,9
17490,891,0.871,820,863,865,858,827,832,749,680,11,1.347,160,STRONG_GRIP,9
17500,859,0.84,840,845,848,864,841,800,761,676,10,1.366,160,STRONG_GRIP,9
17510,882,0.862,802,859,875,878,816,681,656,720,11,1.346,160,STRONG_GRIP,9
17520,857,0.838,839,847,850,856,870,814,724,723,10,1.282,160,STRONG_GRIP,9
17530,854,0.835,840,819,832,839,833,711,668,820,10,1.351,160,STRONG_GRIP,9
17540,892,0.872,809,812,804,857,858,777,836,735,11,1.434,160,STRONG_GRIP,9
17550,876,0.856,800,837,852,851,800,660,707,777,11,1.376,160,STRONG_GRIP,9
17560,898,0.878,859,843,805,827,830,657,654,755,11,1.504,160,STRONG_GRIP,9
17570,816,0.798,837,808,873,877,813,803,762,839,8,1.018,160,STRONG_GRIP,9
17580,879,0.859,835,879,832,802,810,761,835,841,11,1.397,160,STRONG_GRIP,9
17590,843,0.824,858,849,868,828,866,651,802,796,9,1.251,160,STRONG_GRIP,9
17600,882,0.862,864,861,853,844,848,718,815,781,11,1.387,160,STRONG_GRIP,9
17610,852,0.833,852,830,821,810,833,762,792,763,10,1.325,160,STRONG_GRIP,9
17620,895,0.875,852,847,830,836,827,808,719,663,11,1.392,160,STRONG_GRIP,9
17630,815,0.797,824,838,865,837,840,752,747,764,8,1.027,160,STRONG_GRIP,9
17640,863,0.844,815,876,858,810,800,662,679,846,10,1.349,160,STRONG_GRIP,9
17650,812,0.794,831,870,871,849,870,765,762,729,8,1.16,160,STRONG_GRIP,9
17660,850,0.831,826,859,832,852,871,810,775,690,10,1.348,160,STRONG_GRIP,9
17670,840,0.821,841,822,874,832,819,802,739,753,9,1.197,160,STRONG_GRIP,9
17680,831,0.812,832,873,867,814,850,655,740,846,9,1.184,160,STRONG_GRIP,9
17690,891,0.871,834,833,862,867,817,764,803,760,11,1.386,160,STRONG_GRIP,9
17700,877,0.857,873,847,871,830,833,736,784,732,11,1.488,160,STRONG_GRIP,9
17710,807,0.789,877,800,876,802,852,741,815,828,8,1.014,160,STRONG_GRIP,9
17720,866,0.847,863,867,804,809,807,661,713,767,10,1.301,160,STRONG_GRIP,9
17730,866,0.847,849,822,839,877,876,770,795,798,10,1.386,160,STRONG_GRIP,9
17740,800,0.782,837,840,841,808,822,727,660,720,8,1.15,160,STRONG_GRIP,9
17750,825,0.806,829,833,845,868,804,838,815,805,9,1.179,160,STRONG_GRIP,9
17760,822,0.804,845,829,866,832,802,846,770,732,8,1.138,160,STRONG_GRIP,9
17770,857,0.838,856,800,872,859,868,708,695,755,10,1.203,160,STRONG_GRIP,9
17780,896,0.876,824,841,828,824,853,772,722,844,11,1.388,160,STRONG_GRIP,9
17790,837,0.818,819,822,836,861,807,814,694,746,9,1.198,160,STRONG_GRIP,9
17800,821,0.803,804,814,820,816,855,699,784,767,8,0.989,160,STRONG_GRIP,9
17810,859,0.84,806,839,844,858,874,754,704,713,10,1.249,160,STRONG_GRIP,9
17820,895,0.875,839,852,843,862,801,798,699,760,11,1.386,160,STRONG_GRIP,9
17830,808,0.79,819,817,829,864,823,824,739,755,8,1.01,160,STRONG_GRIP,9
17840,828,0.809,876,867,816,804,849,752,761,817,9,1.219,160,STRONG_GRIP,9
17850,850,0.831,810,811,812,863,807,842,658,779,10,1.34,160,STRONG_GRIP,9
17860,801,0.783,867,875,847,873,802,845,783,736,8,1.073,160,STRONG_GRIP,9
17870,802,0.784,809,842,818,813,820,773,692,677,8,1.044,160,STRONG_GRIP,9
17880,823,0.804,853,837,816,821,844,723,838,788,8,1.157,160,STRONG_GRIP,9
17890,865,0.846,832,842,830,834,836,824,749,672,10,1.396,160,STRONG_GRIP,9
17900,889,0.869,814,836,803,821,821,727,794,721,11,1.472,160,STRONG_GRIP,9
17910,893,0.873,879,879,837,823,805,845,783,675,11,1.365,160,STRONG_GRIP,9
17920,840,0.821,874,837,879,842,852,792,705,754,9,1.265,160,STRONG_GRIP,9
17930,882,0.862,856,850,823,857,872,781,659,840,11,1.488,160,STRONG_GRIP,9
17940,814,0.796,862,818,862,855,820,811,794,795,8,1.059,160,STRONG_GRIP,9
17950,850,0.831,864,842,856,809,836,825,769,718,10,1.225,160,STRONG_GRIP,9
17960,875,0.855,835,830,854,837,872,664,793,726,11,1.424,160,STRONG_GRIP,9
17970,852,0.833,855,806,856,854,851,653,692,689,10,1.375,160,STRONG_GRIP,9
17980,829,0.81,809,806,835,834,838,813,758,669,9,1.205,160,STRONG_GRIP,9
17990,858,0.839,848,825,835,842,842,748,682,749,10,1.353,160,STRONG_GRIP,9
18000,924,0.903,894,864,866,861,871,939,927,989,12,1.491,180,CRUSH,10
18010,930,0.909,862,906,904,877,893,996,960,956,13,1.587,180,CRUSH,10
18020,882,0.862,869,874,905,910,904,888,932,883,11,1.322,180,CRUSH,10
18030,920,0.899,871,876,870,890,880,986,932,859,12,1.608,180,CRUSH,10
18040,933,0.912,888,856,853,864,897,855,922,907,13,1.695,180,CRUSH,10
18050,941,0.92,859,874,893,907,874,969,960,925,13,1.62,180,CRUSH,10
18060,889,0.869,915,874,860,885,898,897,964,936,11,1.353,180,CRUSH,10
18070,886,0.866,900,866,881,875,871,990,974,861,11,1.392,180,CRUSH,10
18080,912,0.891,863,913,892,907,890,964,888,850,12,1.468,180,CRUSH,10
18090,892,0.872,858,912,872,903,896,936,850,991,11,1.335,180,CRUSH,10
18100,944,0.923,918,916,898,899,907,902,940,964,13,1.69,180,CRUSH,10
18110,897,0.877,865,851,862,894,892,903,986,922,11,1.451,180,CRUSH,10
18120,890,0.87,911,868,873,862,895,920,975,994,11,1.402,180,CRUSH,10
18130,903,0.883,903,850,916,855,904,887,965,951,12,1.538,180,CRUSH,10
18140,899,0.879,904,897,905,859,901,883,910,993,11,1.346,180,CRUSH,10
18150,926,0.905,881,892,889,914,884,918,899,861,13,1.649,180,CRUSH,10
18160,937,0.916,912,898,885,903,896,964,973,945,13,1.562,180,CRUSH,10
18170,917,0.896,879,907,881,915,900,860,997,886,12,1.447,180,CRUSH,10
18180,928,0.907,868,904,889,856,854,891,937,984,13,1.723,180,CRUSH,10
18190,928,0.907,879,890,852,889,900,881,897,920,13,1.562,180,CRUSH,10
18200,899,0.879,884,873,889,901,888,917,925,914,11,1.5,180,CRUSH,10
18210,881,0.861,855,892,889,888,877,929,912,989,11,1.342,180,CRUSH,10
18220,908,0.888,872,900,894,871,859,984,938,864,12,1.574,180,CRUSH,10
18230,925,0.904,910,910,900,887,861,926,961,915,13,1.739,180,CRUSH,10
18240,918,0.897,879,897,880,874,917,862,977,950,12,1.637,180,CRUSH,10
18250,935,0.914,868,895,864,881,898,998,914,876,13,1.754,180,CRUSH,10
18260,891,0.871,915,854,858,869,912,921,947,922,11,1.369,180,CRUSH,10
